	-1.579453
	-1.579453
	-1.538698
	-1.482660
	-1.452094
	-1.518321
	-1.559075
	-1.599830
	-1.655868
	-1.701717
	-1.691529
	-1.660963
	-1.655868
	-1.645680
	-1.645680
	-1.676246
	-1.778133
	-1.823982
	-1.874925
	-1.910586
	-1.946246
	-1.992096
	-2.099077
	-2.190775
	-2.272285
	-2.307946
	-2.384361
	-2.481154
	-2.557569
	-2.598324
	-2.588135
	-2.506625
	-2.420021
	-2.353795
	-2.338512
	-2.323229
	-2.307946
	-2.267191
	-2.226436
	-2.226436
	-2.144926
	-2.048134
	-1.900397
	-1.717000
	-1.599830
	-1.436811
	-1.304358
	-1.110772
	-0.917187
	-0.728696
	-0.550393
	-0.402657
	-0.290581
	-0.270204
	-0.285487
	-0.351713
	-0.458695
	-0.591148
	-0.682846
	-0.759262
	-0.861149
	-0.952847
	-1.029263
	-1.080206
	-1.105678
	-1.192282
	-1.283980
	-1.370584
	-1.426622
	-1.447000
	-1.472471
	-1.487755
	-1.513226
	-1.548887
	-1.553981
	-1.574359
	-1.569264
	-1.584547
	-1.569264
	-1.574359
	-1.574359
	-1.564170
	-1.548887
	-1.518321
	-1.538698
	-1.569264
	-1.564170
	-1.553981
	-1.569264
	-1.594736
	-1.599830
	-1.610019
	-1.615113
	-1.625302
	-1.635491
	-1.671151
	-1.666057
	-1.604925
	-1.574359
	-1.564170
	-1.559075
	-1.579453
	-1.579453
	-1.625302
	-1.635491
	-1.645680
	-1.660963
	-1.676246
	-1.691529
	-1.691529
	-1.686434
	-1.671151
	-1.655868
	-1.655868
	-1.635491
	-1.625302
	-1.594736
	-1.604925
	-1.620208
	-1.691529
	-1.727189
	-1.645680
	-1.615113
	-1.620208
	-1.625302
	-1.650774
	-1.655868
	-1.671151
	-1.701717
	-1.671151
	-1.640585
	-1.660963
	-1.660963
	-1.640585
	-1.625302
	-1.599830
	-1.553981
	-1.548887
	-1.589642
	-1.630396
	-1.630396
	-1.650774
	-1.655868
	-1.640585
	-1.635491
	-1.620208
	-1.630396
	-1.640585
	-1.625302
	-1.604925
	-1.604925
	-1.615113
	-1.599830
	-1.599830
	-1.625302
	-1.655868
	-1.645680
	-1.676246
	-1.691529
	-1.676246
	-1.635491
	-1.630396
	-1.666057
	-1.655868
	-1.620208
	-1.604925
	-1.584547
	-1.599830
	-1.604925
	-1.620208
	-1.594736
	-1.625302
	-1.630396
	-1.635491
	-1.625302
	-1.635491
	-1.660963
	-1.671151
	-1.666057
	-1.691529
	-1.681340
	-1.660963
	-1.650774
	-1.625302
	-1.579453
	-1.559075
	-1.574359
	-1.604925
	-1.620208
	-1.645680
	-1.671151
	-1.671151
	-1.650774
	-1.630396
	-1.615113
	-1.640585
	-1.666057
	-1.635491
	-1.630396
	-1.635491
	-1.579453
	-1.589642
	-1.589642
	-1.574359
	-1.584547
	-1.650774
	-1.666057
	-1.650774
	-1.625302
	-1.640585
	-1.686434
	-1.686434
	-1.681340
	-1.671151
	-1.630396
	-1.615113
	-1.599830
	-1.599830
	-1.610019
	-1.594736
	-1.620208
	-1.615113
	-1.625302
	-1.660963
	-1.706812
	-1.717000
	-1.701717
	-1.696623
	-1.691529
	-1.722095
	-1.701717
	-1.681340
	-1.676246
	-1.671151
	-1.671151
	-1.625302
	-1.584547
	-1.599830
	-1.620208
	-1.625302
	-1.655868
	-1.676246
	-1.676246
	-1.671151
	-1.686434
	-1.696623
	-1.660963
	-1.630396
	-1.645680
	-1.660963
	-1.640585
	-1.635491
	-1.655868
	-1.681340
	-1.686434
	-1.701717
	-1.706812
	-1.722095
	-1.717000
	-1.717000
	-1.732284
	-1.752661
	-1.747567
	-1.752661
	-1.737378
	-1.686434
	-1.635491
	-1.655868
	-1.660963
	-1.625302
	-1.645680
	-1.655868
	-1.681340
	-1.717000
	-1.727189
	-1.727189
	-1.696623
	-1.696623
	-1.706812
	-1.711906
	-1.686434
	-1.655868
	-1.650774
	-1.620208
	-1.620208
	-1.625302
	-1.640585
	-1.650774
	-1.691529
	-1.737378
	-1.727189
	-1.681340
	-1.645680
	-1.650774
	-1.655868
	-1.676246
	-1.686434
	-1.630396
	-1.599830
	-1.574359
	-1.569264
	-1.599830
	-1.589642
	-1.574359
	-1.559075
	-1.584547
	-1.610019
	-1.579453
	-1.599830
	-1.630396
	-1.660963
	-1.696623
	-1.732284
	-1.696623
	-1.615113
	-1.548887
	-1.492849
	-1.487755
	-1.518321
	-1.559075
	-1.574359
	-1.579453
	-1.579453
	-1.564170
	-1.548887
	-1.533604
	-1.528509
	-1.528509
	-1.523415
	-1.513226
	-1.497943
	-1.492849
	-1.472471
	-1.436811
	-1.416434
	-1.406245
	-1.416434
	-1.421528
	-1.467377
	-1.467377
	-1.441905
	-1.436811
	-1.436811
	-1.441905
	-1.457188
	-1.457188
	-1.457188
	-1.401150
	-1.375679
	-1.365490
	-1.370584
	-1.365490
	-1.375679
	-1.370584
	-1.380773
	-1.411339
	-1.431717
	-1.426622
	-1.421528
	-1.390962
	-1.396056
	-1.441905
	-1.436811
	-1.436811
	-1.411339
	-1.406245
	-1.390962
	-1.390962
	-1.406245
	-1.416434
	-1.401150
	-1.421528
	-1.426622
	-1.431717
	-1.436811
	-1.457188
	-1.452094
	-1.467377
	-1.503038
	-1.508132
	-1.467377
	-1.467377
	-1.472471
	-1.452094
	-1.431717
	-1.416434
	-1.421528
	-1.436811
	-1.467377
	-1.513226
	-1.533604
	-1.543792
	-1.543792
	-1.533604
	-1.538698
	-1.528509
	-1.538698
	-1.528509
	-1.513226
	-1.518321
	-1.538698
	-1.523415
	-1.518321
	-1.518321
	-1.523415
	-1.548887
	-1.543792
	-1.538698
	-1.553981
	-1.599830
	-1.635491
	-1.640585
	-1.660963
	-1.615113
	-1.569264
	-1.559075
	-1.523415
	-1.508132
	-1.528509
	-1.518321
	-1.528509
	-1.559075
	-1.574359
	-1.594736
	-1.610019
	-1.630396
	-1.640585
	-1.650774
	-1.620208
	-1.630396
	-1.630396
	-1.671151
	-1.655868
	-1.635491
	-1.645680
	-1.630396
	-1.599830
	-1.599830
	-1.640585
	-1.666057
	-1.691529
	-1.676246
	-1.681340
	-1.681340
	-1.645680
	-1.650774
	-1.640585
	-1.599830
	-1.564170
	-1.574359
	-1.579453
	-1.604925
	-1.650774
	-1.666057
	-1.635491
	-1.660963
	-1.691529
	-1.717000
	-1.711906
	-1.701717
	-1.696623
	-1.681340
	-1.671151
	-1.655868
	-1.625302
	-1.610019
	-1.625302
	-1.635491
	-1.630396
	-1.640585
	-1.599830
	-1.564170
	-1.610019
	-1.630396
	-1.681340
	-1.655868
	-1.645680
	-1.650774
	-1.666057
	-1.671151
	-1.630396
	-1.584547
	-1.553981
	-1.553981
	-1.579453
	-1.579453
	-1.604925
	-1.635491
	-1.711906
	-1.711906
	-1.691529
	-1.650774
	-1.625302
	-1.620208
	-1.630396
	-1.650774
	-1.650774
	-1.630396
	-1.579453
	-1.538698
	-1.569264
	-1.579453
	-1.559075
	-1.579453
	-1.579453
	-1.610019
	-1.630396
	-1.630396
	-1.655868
	-1.676246
	-1.701717
	-1.640585
	-1.620208
	-1.599830
	-1.574359
	-1.599830
	-1.620208
	-1.584547
	-1.579453
	-1.579453
	-1.589642
	-1.610019
	-1.635491
	-1.635491
	-1.655868
	-1.655868
	-1.660963
	-1.655868
	-1.671151
	-1.671151
	-1.640585
	-1.615113
	-1.615113
	-1.615113
	-1.635491
	-1.610019
	-1.599830
	-1.589642
	-1.625302
	-1.655868
	-1.645680
	-1.655868
	-1.671151
	-1.686434
	-1.681340
	-1.681340
	-1.686434
	-1.640585
	-1.635491
	-1.599830
	-1.599830
	-1.615113
	-1.635491
	-1.610019
	-1.594736
	-1.599830
	-1.594736
	-1.564170
	-1.579453
	-1.615113
	-1.655868
	-1.645680
	-1.630396
	-1.604925
	-1.589642
	-1.574359
	-1.548887
	-1.559075
	-1.559075
	-1.574359
	-1.574359
	-1.559075
	-1.599830
	-1.594736
	-1.610019
	-1.610019
	-1.610019
	-1.620208
	-1.645680
	-1.635491
	-1.640585
	-1.666057
	-1.640585
	-1.574359
	-1.579453
	-1.564170
	-1.548887
	-1.548887
	-1.569264
	-1.589642
	-1.620208
	-1.604925
	-1.620208
	-1.635491
	-1.635491
	-1.640585
	-1.645680
	-1.630396
	-1.610019
	-1.584547
	-1.579453
	-1.579453
	-1.574359
	-1.564170
	-1.569264
	-1.594736
	-1.630396
	-1.655868
	-1.630396
	-1.599830
	-1.615113
	-1.625302
	-1.640585
	-1.620208
	-1.574359
	-1.553981
	-1.553981
	-1.518321
	-1.523415
	-1.523415
	-1.528509
	-1.564170
	-1.564170
	-1.574359
	-1.594736
	-1.610019
	-1.640585
	-1.655868
	-1.620208
	-1.589642
	-1.564170
	-1.564170
	-1.543792
	-1.533604
	-1.564170
	-1.559075
	-1.564170
	-1.559075
	-1.579453
	-1.604925
	-1.625302
	-1.635491
	-1.640585
	-1.650774
	-1.625302
	-1.655868
	-1.655868
	-1.630396
	-1.615113
	-1.594736
	-1.599830
	-1.579453
	-1.574359
	-1.579453
	-1.604925
	-1.599830
	-1.589642
	-1.599830
	-1.655868
	-1.666057
	-1.660963
	-1.655868
	-1.655868
	-1.620208
	-1.589642
	-1.589642
	-1.579453
	-1.569264
	-1.543792
	-1.553981
	-1.548887
	-1.569264
	-1.574359
	-1.584547
	-1.620208
	-1.604925
	-1.589642
	-1.584547
	-1.599830
	-1.620208
	-1.604925
	-1.584547
	-1.579453
	-1.579453
	-1.589642
	-1.594736
	-1.604925
	-1.599830
	-1.625302
	-1.635491
	-1.635491
	-1.650774
	-1.660963
	-1.650774
	-1.640585
	-1.650774
	-1.640585
	-1.615113
	-1.579453
	-1.548887
	-1.533604
	-1.553981
	-1.559075
	-1.533604
	-1.533604
	-1.548887
	-1.584547
	-1.620208
	-1.676246
	-1.660963
	-1.655868
	-1.640585
	-1.610019
	-1.569264
	-1.564170
	-1.564170
	-1.559075
	-1.574359
	-1.584547
	-1.589642
	-1.589642
	-1.615113
	-1.620208
	-1.589642
	-1.574359
	-1.564170
	-1.620208
	-1.650774
	-1.645680
	-1.635491
	-1.635491
	-1.625302
	-1.625302
	-1.574359
	-1.543792
	-1.523415
	-1.553981
	-1.538698
	-1.594736
	-1.671151
	-1.671151
	-1.655868
	-1.676246
	-1.666057
	-1.630396
	-1.620208
	-1.630396
	-1.620208
	-1.620208
	-1.620208
	-1.584547
	-1.564170
	-1.559075
	-1.599830
	-1.620208
	-1.630396
	-1.640585
	-1.630396
	-1.640585
	-1.655868
	-1.681340
	-1.666057
	-1.635491
	-1.620208
	-1.604925
	-1.620208
	-1.635491
	-1.650774
	-1.635491
	-1.625302
	-1.594736
	-1.579453
	-1.630396
	-1.650774
	-1.660963
	-1.660963
	-1.650774
	-1.640585
	-1.650774
	-1.671151
	-1.640585
	-1.620208
	-1.620208
	-1.620208
	-1.615113
	-1.604925
	-1.610019
	-1.615113
	-1.645680
	-1.671151
	-1.655868
	-1.640585
	-1.660963
	-1.717000
	-1.701717
	-1.671151
	-1.625302
	-1.599830
	-1.569264
	-1.538698
	-1.548887
	-1.553981
	-1.553981
	-1.559075
	-1.569264
	-1.599830
	-1.620208
	-1.655868
	-1.645680
	-1.655868
	-1.671151
	-1.666057
	-1.650774
	-1.615113
	-1.579453
	-1.574359
	-1.564170
	-1.574359
	-1.579453
	-1.559075
	-1.533604
	-1.543792
	-1.579453
	-1.574359
	-1.584547
	-1.589642
	-1.543792
	-1.518321
	-1.508132
	-1.503038
	-1.467377
	-1.472471
	-1.492849
	-1.503038
	-1.503038
	-1.472471
	-1.482660
	-1.497943
	-1.528509
	-1.538698
	-1.528509
	-1.579453
	-1.589642
	-1.564170
	-1.543792
	-1.533604
	-1.538698
	-1.518321
	-1.508132
	-1.467377
	-1.477566
	-1.513226
	-1.523415
	-1.553981
	-1.574359
	-1.599830
	-1.548887
	-1.533604
	-1.543792
	-1.599830
	-1.610019
	-1.589642
	-1.584547
	-1.564170
	-1.543792
	-1.543792
	-1.548887
	-1.533604
	-1.497943
	-1.523415
	-1.553981
	-1.599830
	-1.615113
	-1.610019
	-1.615113
	-1.615113
	-1.604925
	-1.615113
	-1.620208
	-1.604925
	-1.574359
	-1.564170
	-1.528509
	-1.503038
	-1.513226
	-1.543792
	-1.574359
	-1.589642
	-1.610019
	-1.604925
	-1.599830
	-1.604925
	-1.599830
	-1.594736
	-1.635491
	-1.655868
	-1.676246
	-1.660963
	-1.635491
	-1.579453
	-1.553981
	-1.574359
	-1.574359
	-1.615113
	-1.604925
	-1.625302
	-1.615113
	-1.610019
	-1.615113
	-1.589642
	-1.574359
	-1.564170
	-1.610019
	-1.584547
	-1.553981
	-1.553981
	-1.569264
	-1.594736
	-1.635491
	-1.666057
	-1.706812
	-1.747567
	-1.803605
	-1.823982
	-1.864737
	-1.930963
	-1.992096
	-2.032850
	-2.063417
	-2.155115
	-2.216247
	-2.323229
	-2.389455
	-2.465871
	-2.506625
	-2.557569
	-2.598324
	-2.608513
	-2.593229
	-2.552475
	-2.521909
	-2.496437
	-2.460776
	-2.481154
	-2.450588
	-2.328323
	-2.226436
	-2.093983
	-1.956435
	-1.783227
	-1.594736
	-1.447000
	-1.289075
	-1.171905
	-1.029263
	-0.866243
	-0.667563
	-0.535110
	-0.397563
	-0.285487
	-0.249826
	-0.229449
	-0.310959
	-0.438317
	-0.570771
	-0.662469
	-0.723601
	-0.794922
	-0.856055
	-0.937564
	-0.998696
	-1.059829
	-1.151527
	-1.258509
	-1.355301
	-1.416434
	-1.467377
	-1.503038
	-1.528509
	-1.548887
	-1.523415
	-1.528509
	-1.528509
	-1.543792
	-1.533604
	-1.523415
	-1.528509
	-1.523415
	-1.538698
	-1.553981
	-1.564170
	-1.579453
	-1.584547
	-1.604925
	-1.604925
	-1.655868
	-1.660963
	-1.589642
	-1.574359
	-1.569264
	-1.553981
	-1.564170
	-1.538698
	-1.584547
	-1.599830
	-1.548887
	-1.538698
	-1.543792
	-1.579453
	-1.594736
	-1.620208
	-1.660963
	-1.681340
	-1.640585
	-1.620208
	-1.640585
	-1.640585
	-1.594736
	-1.579453
	-1.579453
	-1.569264
	-1.594736
	-1.645680
	-1.635491
	-1.650774
	-1.645680
	-1.681340
	-1.717000
	-1.691529
	-1.666057
	-1.650774
	-1.640585
	-1.635491
	-1.630396
	-1.615113
	-1.594736
	-1.569264
	-1.548887
	-1.574359
	-1.620208
	-1.645680
	-1.681340
	-1.676246
	-1.691529
	-1.686434
	-1.686434
	-1.727189
	-1.686434
	-1.635491
	-1.599830
	-1.589642
	-1.604925
	-1.615113
	-1.599830
	-1.594736
	-1.620208
	-1.645680
	-1.671151
	-1.671151
	-1.660963
	-1.676246
	-1.660963
	-1.671151
	-1.655868
	-1.620208
	-1.594736
	-1.574359
	-1.620208
	-1.630396
	-1.630396
	-1.630396
	-1.650774
	-1.696623
	-1.701717
	-1.701717
	-1.696623
	-1.681340
	-1.660963
	-1.635491
	-1.660963
	-1.655868
	-1.635491
	-1.599830
	-1.548887
	-1.579453
	-1.594736
	-1.599830
	-1.599830
	-1.599830
	-1.599830
	-1.635491
	-1.650774
	-1.655868
	-1.691529
	-1.671151
	-1.686434
	-1.681340
	-1.635491
	-1.625302
	-1.620208
	-1.594736
	-1.589642
	-1.574359
	-1.584547
	-1.599830
	-1.635491
	-1.660963
	-1.701717
	-1.701717
	-1.701717
	-1.717000
	-1.722095
	-1.686434
	-1.660963
	-1.620208
	-1.594736
	-1.569264
	-1.604925
	-1.610019
	-1.625302
	-1.584547
	-1.584547
	-1.625302
	-1.660963
	-1.722095
	-1.701717
	-1.676246
	-1.655868
	-1.635491
	-1.635491
	-1.615113
	-1.610019
	-1.589642
	-1.584547
	-1.604925
	-1.599830
	-1.594736
	-1.594736
	-1.650774
	-1.671151
	-1.676246
	-1.701717
	-1.696623
	-1.701717
	-1.717000
	-1.711906
	-1.676246
	-1.696623
	-1.686434
	-1.635491
	-1.660963
	-1.655868
	-1.620208
	-1.584547
	-1.559075
	-1.594736
	-1.620208
	-1.640585
	-1.635491
	-1.645680
	-1.711906
	-1.722095
	-1.747567
	-1.727189
	-1.696623
	-1.676246
	-1.666057
	-1.660963
	-1.660963
	-1.696623
	-1.676246
	-1.655868
	-1.681340
	-1.706812
	-1.686434
	-1.655868
	-1.660963
	-1.666057
	-1.660963
	-1.681340
	-1.676246
	-1.696623
	-1.706812
	-1.686434
	-1.666057
	-1.645680
	-1.655868
	-1.660963
	-1.666057
	-1.666057
	-1.671151
	-1.681340
	-1.660963
	-1.666057
	-1.681340
	-1.666057
	-1.645680
	-1.615113
	-1.604925
	-1.610019
	-1.620208
	-1.620208
	-1.635491
	-1.635491
	-1.640585
	-1.620208
	-1.625302
	-1.660963
	-1.691529
	-1.691529
	-1.706812
	-1.655868
	-1.635491
	-1.640585
	-1.615113
	-1.615113
	-1.599830
	-1.589642
	-1.584547
	-1.594736
	-1.594736
	-1.574359
	-1.584547
	-1.589642
	-1.589642
	-1.574359
	-1.574359
	-1.574359
	-1.574359
	-1.594736
	-1.518321
	-1.497943
	-1.477566
	-1.467377
	-1.477566
	-1.452094
	-1.462283
	-1.426622
	-1.436811
	-1.431717
	-1.447000
	-1.472471
	-1.447000
	-1.472471
	-1.467377
	-1.477566
	-1.482660
	-1.457188
	-1.441905
	-1.436811
	-1.431717
	-1.406245
	-1.360396
	-1.355301
	-1.340018
	-1.355301
	-1.360396
	-1.375679
	-1.426622
	-1.421528
	-1.426622
	-1.426622
	-1.457188
	-1.467377
	-1.411339
	-1.375679
	-1.350207
	-1.334924
	-1.319641
	-1.329830
	-1.350207
	-1.355301
	-1.370584
	-1.401150
	-1.421528
	-1.416434
	-1.390962
	-1.396056
	-1.431717
	-1.457188
	-1.436811
	-1.426622
	-1.426622
	-1.447000
	-1.431717
	-1.416434
	-1.416434
	-1.396056
	-1.396056
	-1.436811
	-1.472471
	-1.477566
	-1.482660
	-1.482660
	-1.482660
	-1.497943
	-1.528509
	-1.467377
	-1.406245
	-1.390962
	-1.390962
	-1.406245
	-1.426622
	-1.441905
	-1.457188
	-1.482660
	-1.497943
	-1.508132
	-1.564170
	-1.553981
	-1.564170
	-1.559075
	-1.569264
	-1.579453
	-1.569264
	-1.559075
	-1.553981
	-1.538698
	-1.543792
	-1.528509
	-1.538698
	-1.569264
	-1.589642
	-1.559075
	-1.564170
	-1.584547
	-1.599830
	-1.625302
	-1.635491
	-1.655868
	-1.604925
	-1.574359
	-1.553981
	-1.574359
	-1.584547
	-1.574359
	-1.559075
	-1.543792
	-1.559075
	-1.599830
	-1.594736
	-1.620208
	-1.620208
	-1.625302
	-1.615113
	-1.635491
	-1.655868
	-1.635491
	-1.625302
	-1.620208
	-1.630396
	-1.625302
	-1.599830
	-1.599830
	-1.604925
	-1.615113
	-1.620208
	-1.630396
	-1.640585
	-1.635491
	-1.640585
	-1.660963
	-1.650774
	-1.620208
	-1.594736
	-1.604925
	-1.574359
	-1.553981
	-1.553981
	-1.579453
	-1.589642
	-1.599830
	-1.625302
	-1.655868
	-1.666057
	-1.696623
	-1.676246
	-1.645680
	-1.645680
	-1.635491
	-1.599830
	-1.564170
	-1.559075
	-1.574359
	-1.615113
	-1.610019
	-1.620208
	-1.620208
	-1.645680
	-1.676246
	-1.686434
	-1.706812
	-1.686434
	-1.660963
	-1.655868
	-1.660963
	-1.671151
	-1.635491
	-1.620208
	-1.610019
	-1.589642
	-1.594736
	-1.584547
	-1.604925
	-1.635491
	-1.681340
	-1.671151
	-1.650774
	-1.620208
	-1.610019
	-1.640585
	-1.645680
	-1.691529
	-1.706812
	-1.666057
	-1.640585
	-1.630396
	-1.635491
	-1.630396
	-1.610019
	-1.599830
	-1.620208
	-1.671151
	-1.640585
	-1.630396
	-1.610019
	-1.615113
	-1.650774
	-1.640585
	-1.645680
	-1.625302
	-1.620208
	-1.599830
	-1.579453
	-1.589642
	-1.574359
	-1.564170
	-1.548887
	-1.559075
	-1.594736
	-1.610019
	-1.650774
	-1.650774
	-1.676246
	-1.676246
	-1.691529
	-1.676246
	-1.645680
	-1.604925
	-1.559075
	-1.564170
	-1.508132
	-1.513226
	-1.548887
	-1.594736
	-1.620208
	-1.620208
	-1.630396
	-1.676246
	-1.701717
	-1.711906
	-1.686434
	-1.681340
	-1.645680
	-1.594736
	-1.584547
	-1.594736
	-1.584547
	-1.574359
	-1.594736
	-1.599830
	-1.594736
	-1.635491
	-1.650774
	-1.676246
	-1.655868
	-1.645680
	-1.640585
	-1.650774
	-1.640585
	-1.604925
	-1.599830
	-1.574359
	-1.523415
	-1.548887
	-1.574359
	-1.599830
	-1.594736
	-1.589642
	-1.610019
	-1.625302
	-1.655868
	-1.671151
	-1.676246
	-1.660963
	-1.620208
	-1.620208
	-1.589642
	-1.594736
	-1.604925
	-1.553981
	-1.533604
	-1.548887
	-1.553981
	-1.553981
	-1.569264
	-1.589642
	-1.579453
	-1.589642
	-1.574359
	-1.564170
	-1.553981
	-1.574359
	-1.564170
	-1.553981
	-1.553981
	-1.548887
	-1.548887
	-1.543792
	-1.538698
	-1.548887
	-1.574359
	-1.630396
	-1.645680
	-1.676246
	-1.681340
	-1.655868
	-1.660963
	-1.655868
	-1.650774
	-1.635491
	-1.604925
	-1.574359
	-1.553981
	-1.538698
	-1.513226
	-1.523415
	-1.543792
	-1.574359
	-1.589642
	-1.604925
	-1.625302
	-1.630396
	-1.655868
	-1.640585
	-1.640585
	-1.691529
	-1.645680
	-1.620208
	-1.589642
	-1.564170
	-1.538698
	-1.538698
	-1.559075
	-1.553981
	-1.594736
	-1.615113
	-1.620208
	-1.620208
	-1.635491
	-1.650774
	-1.640585
	-1.686434
	-1.660963
	-1.620208
	-1.610019
	-1.615113
	-1.599830
	-1.559075
	-1.559075
	-1.518321
	-1.513226
	-1.559075
	-1.579453
	-1.594736
	-1.630396
	-1.650774
	-1.666057
	-1.645680
	-1.630396
	-1.594736
	-1.584547
	-1.579453
	-1.553981
	-1.559075
	-1.564170
	-1.574359
	-1.559075
	-1.615113
	-1.625302
	-1.584547
	-1.604925
	-1.635491
	-1.620208
	-1.594736
	-1.594736
	-1.615113
	-1.599830
	-1.599830
	-1.584547
	-1.574359
	-1.553981
	-1.574359
	-1.589642
	-1.594736
	-1.620208
	-1.640585
	-1.625302
	-1.671151
	-1.686434
	-1.676246
	-1.650774
	-1.625302
	-1.615113
	-1.615113
	-1.630396
	-1.579453
	-1.569264
	-1.564170
	-1.574359
	-1.589642
	-1.574359
	-1.533604
	-1.528509
	-1.584547
	-1.625302
	-1.620208
	-1.640585
	-1.660963
	-1.640585
	-1.594736
	-1.579453
	-1.599830
	-1.604925
	-1.635491
	-1.625302
	-1.589642
	-1.538698
	-1.548887
	-1.589642
	-1.640585
	-1.640585
	-1.630396
	-1.635491
	-1.645680
	-1.660963
	-1.645680
	-1.640585
	-1.615113
	-1.553981
	-1.523415
	-1.538698
	-1.553981
	-1.574359
	-1.594736
	-1.604925
	-1.604925
	-1.594736
	-1.610019
	-1.640585
	-1.640585
	-1.610019
	-1.620208
	-1.610019
	-1.594736
	-1.589642
	-1.594736
	-1.625302
	-1.594736
	-1.559075
	-1.559075
	-1.564170
	-1.620208
	-1.645680
	-1.676246
	-1.671151
	-1.696623
	-1.701717
	-1.655868
	-1.660963
	-1.635491
	-1.645680
	-1.604925
	-1.589642
	-1.599830
	-1.574359
	-1.543792
	-1.538698
	-1.589642
	-1.655868
	-1.635491
	-1.620208
	-1.655868
	-1.655868
	-1.686434
	-1.717000
	-1.717000
	-1.681340
	-1.650774
	-1.630396
	-1.620208
	-1.620208
	-1.610019
	-1.615113
	-1.645680
	-1.671151
	-1.681340
	-1.676246
	-1.722095
	-1.722095
	-1.686434
	-1.686434
	-1.686434
	-1.681340
	-1.640585
	-1.635491
	-1.599830
	-1.604925
	-1.599830
	-1.635491
	-1.604925
	-1.574359
	-1.579453
	-1.579453
	-1.620208
	-1.676246
	-1.671151
	-1.666057
	-1.645680
	-1.630396
	-1.615113
	-1.615113
	-1.589642
	-1.589642
	-1.569264
	-1.559075
	-1.553981
	-1.533604
	-1.559075
	-1.584547
	-1.599830
	-1.604925
	-1.574359
	-1.548887
	-1.538698
	-1.513226
	-1.503038
	-1.472471
	-1.467377
	-1.467377
	-1.457188
	-1.467377
	-1.492849
	-1.487755
	-1.487755
	-1.508132
	-1.528509
	-1.559075
	-1.599830
	-1.569264
	-1.559075
	-1.548887
	-1.553981
	-1.538698
	-1.528509
	-1.518321
	-1.523415
	-1.538698
	-1.508132
	-1.472471
	-1.447000
	-1.467377
	-1.518321
	-1.528509
	-1.523415
	-1.523415
	-1.543792
	-1.574359
	-1.594736
	-1.630396
	-1.625302
	-1.594736
	-1.604925
	-1.610019
	-1.610019
	-1.548887
	-1.533604
	-1.523415
	-1.538698
	-1.579453
	-1.620208
	-1.615113
	-1.599830
	-1.579453
	-1.604925
	-1.599830
	-1.599830
	-1.584547
	-1.569264
	-1.548887
	-1.548887
	-1.564170
	-1.523415
	-1.523415
	-1.538698
	-1.599830
	-1.610019
	-1.594736
	-1.610019
	-1.620208
	-1.630396
	-1.615113
	-1.615113
	-1.574359
	-1.538698
	-1.543792
	-1.533604
	-1.543792
	-1.538698
	-1.548887
	-1.533604
	-1.564170
	-1.650774
	-1.660963
	-1.640585
	-1.625302
	-1.640585
	-1.650774
	-1.655868
	-1.650774
	-1.604925
	-1.553981
	-1.518321
	-1.492849
	-1.513226
	-1.508132
	-1.543792
	-1.559075
	-1.594736
	-1.630396
	-1.635491
	-1.676246
	-1.696623
	-1.737378
	-1.767944
	-1.803605
	-1.859642
	-1.864737
	-1.905492
	-1.946246
	-2.017567
	-2.083794
	-2.165304
	-2.241719
	-2.302851
	-2.384361
	-2.470965
	-2.577946
	-2.684928
	-2.746060
	-2.710400
	-2.649267
	-2.593229
	-2.527003
	-2.481154
	-2.455682
	-2.404738
	-2.348700
	-2.302851
	-2.262096
	-2.195870
	-2.093983
	-1.900397
	-1.701717
	-1.553981
	-1.411339
	-1.243225
	-1.075112
	-0.876432
	-0.662469
	-0.468884
	-0.310959
	-0.183600
	-0.112279
	-0.086807
	-0.142845
	-0.295676
	-0.448506
	-0.560582
	-0.616620
	-0.708318
	-0.820394
	-0.922281
	-0.998696
	-1.080206
	-1.166810
	-1.273792
	-1.390962
	-1.426622
	-1.416434
	-1.431717
	-1.467377
	-1.467377
	-1.482660
	-1.508132
	-1.559075
	-1.589642
	-1.610019
	-1.615113
	-1.589642
	-1.589642
	-1.599830
	-1.579453
	-1.594736
	-1.584547
	-1.564170
	-1.569264
	-1.589642
	-1.564170
	-1.523415
	-1.533604
	-1.533604
	-1.569264
	-1.579453
	-1.640585
	-1.635491
	-1.620208
	-1.625302
	-1.615113
	-1.620208
	-1.620208
	-1.620208
	-1.615113
	-1.615113
	-1.589642
	-1.579453
	-1.589642
	-1.589642
	-1.615113
	-1.615113
	-1.650774
	-1.671151
	-1.645680
	-1.625302
	-1.630396
	-1.660963
	-1.645680
	-1.604925
	-1.610019
	-1.579453
	-1.574359
	-1.584547
	-1.589642
	-1.604925
	-1.640585
	-1.691529
	-1.717000
	-1.732284
	-1.696623
	-1.645680
	-1.650774
	-1.660963
	-1.686434
	-1.676246
	-1.615113
	-1.584547
	-1.584547
	-1.564170
	-1.564170
	-1.559075
	-1.584547
	-1.630396
	-1.671151
	-1.660963
	-1.640585
	-1.625302
	-1.620208
	-1.640585
	-1.645680
	-1.645680
	-1.615113
	-1.610019
	-1.594736
	-1.584547
	-1.599830
	-1.579453
	-1.579453
	-1.594736
	-1.635491
	-1.650774
	-1.635491
	-1.655868
	-1.650774
	-1.681340
	-1.676246
	-1.681340
	-1.696623
	-1.676246
	-1.625302
	-1.610019
	-1.630396
	-1.610019
	-1.599830
	-1.569264
	-1.579453
	-1.604925
	-1.579453
	-1.630396
	-1.650774
	-1.671151
	-1.681340
	-1.650774
	-1.645680
	-1.640585
	-1.640585
	-1.630396
	-1.635491
	-1.620208
	-1.579453
	-1.584547
	-1.574359
	-1.604925
	-1.625302
	-1.645680
	-1.655868
	-1.660963
	-1.645680
	-1.645680
	-1.660963
	-1.660963
	-1.635491
	-1.604925
	-1.599830
	-1.579453
	-1.594736
	-1.620208
	-1.640585
	-1.599830
	-1.615113
	-1.640585
	-1.640585
	-1.655868
	-1.676246
	-1.686434
	-1.676246
	-1.717000
	-1.722095
	-1.681340
	-1.650774
	-1.635491
	-1.615113
	-1.630396
	-1.640585
	-1.635491
	-1.610019
	-1.620208
	-1.655868
	-1.686434
	-1.706812
	-1.686434
	-1.706812
	-1.691529
	-1.722095
	-1.706812
	-1.676246
	-1.666057
	-1.655868
	-1.660963
	-1.655868
	-1.671151
	-1.650774
	-1.594736
	-1.625302
	-1.640585
	-1.681340
	-1.686434
	-1.701717
	-1.711906
	-1.701717
	-1.706812
	-1.701717
	-1.686434
	-1.681340
	-1.655868
	-1.660963
	-1.666057
	-1.655868
	-1.660963
	-1.711906
	-1.737378
	-1.717000
	-1.686434
	-1.671151
	-1.717000
	-1.717000
	-1.717000
	-1.717000
	-1.717000
	-1.732284
	-1.691529
	-1.645680
	-1.625302
	-1.584547
	-1.569264
	-1.579453
	-1.640585
	-1.696623
	-1.701717
	-1.696623
	-1.691529
	-1.701717
	-1.676246
	-1.701717
	-1.696623
	-1.676246
	-1.666057
	-1.640585
	-1.625302
	-1.625302
	-1.640585
	-1.635491
	-1.655868
	-1.666057
	-1.645680
	-1.640585
	-1.655868
	-1.660963
	-1.671151
	-1.660963
	-1.666057
	-1.640585
	-1.630396
	-1.640585
	-1.620208
	-1.620208
	-1.635491
	-1.640585
	-1.650774
	-1.645680
	-1.604925
	-1.589642
	-1.604925
	-1.630396
	-1.666057
	-1.671151
	-1.671151
	-1.625302
	-1.574359
	-1.548887
	-1.538698
	-1.579453
	-1.548887
	-1.543792
	-1.523415
	-1.508132
	-1.523415
	-1.508132
	-1.487755
	-1.513226
	-1.523415
	-1.543792
	-1.533604
	-1.523415
	-1.487755
	-1.467377
	-1.447000
	-1.436811
	-1.452094
	-1.436811
	-1.426622
	-1.401150
	-1.421528
	-1.431717
	-1.426622
	-1.452094
	-1.436811
	-1.416434
	-1.441905
	-1.472471
	-1.497943
	-1.416434
	-1.350207
	-1.309452
	-1.299263
	-1.283980
	-1.278886
	-1.319641
	-1.309452
	-1.350207
	-1.406245
	-1.452094
	-1.447000
	-1.421528
	-1.396056
	-1.380773
	-1.380773
	-1.396056
	-1.355301
	-1.345113
	-1.350207
	-1.345113
	-1.360396
	-1.370584
	-1.406245
	-1.416434
	-1.457188
	-1.457188
	-1.431717
	-1.421528
	-1.436811
	-1.462283
	-1.452094
	-1.472471
	-1.492849
	-1.431717
	-1.396056
	-1.401150
	-1.436811
	-1.447000
	-1.477566
	-1.482660
	-1.518321
	-1.533604
	-1.533604
	-1.538698
	-1.548887
	-1.538698
	-1.528509
	-1.513226
	-1.497943
	-1.497943
	-1.497943
	-1.482660
	-1.472471
	-1.508132
	-1.508132
	-1.492849
	-1.487755
	-1.538698
	-1.579453
	-1.604925
	-1.599830
	-1.569264
	-1.569264
	-1.569264
	-1.604925
	-1.610019
	-1.615113
	-1.604925
	-1.579453
	-1.569264
	-1.569264
	-1.548887
	-1.564170
	-1.574359
	-1.599830
	-1.610019
	-1.604925
	-1.589642
	-1.604925
	-1.676246
	-1.655868
	-1.630396
	-1.584547
	-1.543792
	-1.564170
	-1.594736
	-1.604925
	-1.584547
	-1.620208
	-1.594736
	-1.610019
	-1.635491
	-1.655868
	-1.681340
	-1.676246
	-1.671151
	-1.635491
	-1.615113
	-1.610019
	-1.574359
	-1.569264
	-1.574359
	-1.599830
	-1.615113
	-1.630396
	-1.635491
	-1.620208
	-1.635491
	-1.655868
	-1.660963
	-1.676246
	-1.696623
	-1.696623
	-1.701717
	-1.727189
	-1.717000
	-1.676246
	-1.645680
	-1.610019
	-1.599830
	-1.579453
	-1.564170
	-1.599830
	-1.620208
	-1.640585
	-1.635491
	-1.640585
	-1.671151
	-1.686434
	-1.691529
	-1.666057
	-1.681340
	-1.666057
	-1.640585
	-1.635491
	-1.604925
	-1.589642
	-1.610019
	-1.615113
	-1.640585
	-1.655868
	-1.676246
	-1.676246
	-1.701717
	-1.691529
	-1.671151
	-1.691529
	-1.655868
	-1.620208
	-1.610019
	-1.620208
	-1.645680
	-1.625302
	-1.594736
	-1.594736
	-1.599830
	-1.594736
	-1.620208
	-1.666057
	-1.650774
	-1.635491
	-1.666057
	-1.696623
	-1.711906
	-1.701717
	-1.660963
	-1.635491
	-1.610019
	-1.589642
	-1.574359
	-1.559075
	-1.538698
	-1.548887
	-1.559075
	-1.589642
	-1.610019
	-1.635491
	-1.645680
	-1.650774
	-1.676246
	-1.660963
	-1.676246
	-1.681340
	-1.650774
	-1.620208
	-1.620208
	-1.630396
	-1.640585
	-1.620208
	-1.610019
	-1.635491
	-1.625302
	-1.625302
	-1.625302
	-1.660963
	-1.701717
	-1.717000
	-1.711906
	-1.640585
	-1.604925
	-1.538698
	-1.528509
	-1.538698
	-1.543792
	-1.538698
	-1.559075
	-1.604925
	-1.620208
	-1.635491
	-1.640585
	-1.645680
	-1.620208
	-1.610019
	-1.620208
	-1.620208
	-1.610019
	-1.584547
	-1.599830
	-1.604925
	-1.589642
	-1.574359
	-1.569264
	-1.564170
	-1.584547
	-1.610019
	-1.615113
	-1.610019
	-1.599830
	-1.630396
	-1.650774
	-1.630396
	-1.630396
	-1.625302
	-1.620208
	-1.650774
	-1.630396
	-1.610019
	-1.579453
	-1.579453
	-1.574359
	-1.594736
	-1.620208
	-1.620208
	-1.599830
	-1.604925
	-1.620208
	-1.599830
	-1.594736
	-1.620208
	-1.599830
	-1.548887
	-1.533604
	-1.513226
	-1.543792
	-1.538698
	-1.543792
	-1.543792
	-1.569264
	-1.630396
	-1.655868
	-1.686434
	-1.701717
	-1.701717
	-1.701717
	-1.681340
	-1.655868
	-1.655868
	-1.630396
	-1.604925
	-1.589642
	-1.579453
	-1.559075
	-1.559075
	-1.548887
	-1.553981
	-1.574359
	-1.599830
	-1.620208
	-1.599830
	-1.610019
	-1.604925
	-1.604925
	-1.569264
	-1.538698
	-1.533604
	-1.553981
	-1.548887
	-1.564170
	-1.594736
	-1.604925
	-1.615113
	-1.640585
	-1.645680
	-1.640585
	-1.645680
	-1.640585
	-1.640585
	-1.640585
	-1.655868
	-1.666057
	-1.620208
	-1.533604
	-1.533604
	-1.538698
	-1.513226
	-1.513226
	-1.538698
	-1.599830
	-1.630396
	-1.645680
	-1.640585
	-1.630396
	-1.645680
	-1.635491
	-1.640585
	-1.615113
	-1.604925
	-1.579453
	-1.523415
	-1.508132
	-1.538698
	-1.559075
	-1.574359
	-1.594736
	-1.625302
	-1.625302
	-1.615113
	-1.615113
	-1.599830
	-1.620208
	-1.615113
	-1.620208
	-1.599830
	-1.584547
	-1.574359
	-1.564170
	-1.564170
	-1.599830
	-1.594736
	-1.579453
	-1.589642
	-1.620208
	-1.650774
	-1.655868
	-1.660963
	-1.660963
	-1.645680
	-1.645680
	-1.666057
	-1.625302
	-1.594736
	-1.599830
	-1.564170
	-1.553981
	-1.528509
	-1.569264
	-1.569264
	-1.584547
	-1.589642
	-1.635491
	-1.671151
	-1.681340
	-1.640585
	-1.599830
	-1.599830
	-1.635491
	-1.604925
	-1.579453
	-1.569264
	-1.579453
	-1.589642
	-1.594736
	-1.604925
	-1.620208
	-1.660963
	-1.676246
	-1.635491
	-1.615113
	-1.589642
	-1.620208
	-1.620208
	-1.620208
	-1.589642
	-1.559075
	-1.564170
	-1.553981
	-1.589642
	-1.589642
	-1.574359
	-1.569264
	-1.615113
	-1.650774
	-1.620208
	-1.655868
	-1.660963
	-1.666057
	-1.676246
	-1.660963
	-1.650774
	-1.615113
	-1.589642
	-1.579453
	-1.615113
	-1.564170
	-1.513226
	-1.503038
	-1.518321
	-1.559075
	-1.604925
	-1.635491
	-1.650774
	-1.671151
	-1.696623
	-1.671151
	-1.660963
	-1.630396
	-1.579453
	-1.528509
	-1.523415
	-1.528509
	-1.543792
	-1.599830
	-1.635491
	-1.620208
	-1.655868
	-1.640585
	-1.615113
	-1.604925
	-1.594736
	-1.615113
	-1.594736
	-1.615113
	-1.589642
	-1.574359
	-1.574359
	-1.610019
	-1.604925
	-1.589642
	-1.604925
	-1.589642
	-1.594736
	-1.640585
	-1.645680
	-1.645680
	-1.681340
	-1.701717
	-1.706812
	-1.696623
	-1.681340
	-1.630396
	-1.625302
	-1.645680
	-1.620208
	-1.650774
	-1.635491
	-1.645680
	-1.655868
	-1.691529
	-1.706812
	-1.727189
	-1.706812
	-1.701717
	-1.717000
	-1.701717
	-1.681340
	-1.681340
	-1.635491
	-1.640585
	-1.640585
	-1.635491
	-1.599830
	-1.599830
	-1.610019
	-1.615113
	-1.635491
	-1.640585
	-1.650774
	-1.671151
	-1.650774
	-1.645680
	-1.630396
	-1.645680
	-1.645680
	-1.615113
	-1.620208
	-1.625302
	-1.604925
	-1.553981
	-1.548887
	-1.579453
	-1.604925
	-1.635491
	-1.615113
	-1.604925
	-1.615113
	-1.635491
	-1.615113
	-1.610019
	-1.594736
	-1.569264
	-1.564170
	-1.553981
	-1.492849
	-1.467377
	-1.447000
	-1.447000
	-1.426622
	-1.452094
	-1.482660
	-1.472471
	-1.477566
	-1.528509
	-1.579453
	-1.589642
	-1.620208
	-1.594736
	-1.538698
	-1.528509
	-1.467377
	-1.477566
	-1.467377
	-1.457188
	-1.467377
	-1.482660
	-1.518321
	-1.538698
	-1.538698
	-1.574359
	-1.564170
	-1.559075
	-1.543792
	-1.569264
	-1.543792
	-1.513226
	-1.497943
	-1.513226
	-1.497943
	-1.492849
	-1.492849
	-1.503038
	-1.553981
	-1.553981
	-1.579453
	-1.630396
	-1.645680
	-1.599830
	-1.610019
	-1.615113
	-1.610019
	-1.599830
	-1.615113
	-1.589642
	-1.548887
	-1.564170
	-1.564170
	-1.553981
	-1.523415
	-1.518321
	-1.538698
	-1.523415
	-1.553981
	-1.594736
	-1.630396
	-1.655868
	-1.660963
	-1.635491
	-1.594736
	-1.559075
	-1.548887
	-1.543792
	-1.589642
	-1.574359
	-1.589642
	-1.594736
	-1.599830
	-1.610019
	-1.635491
	-1.671151
	-1.666057
	-1.681340
	-1.696623
	-1.691529
	-1.650774
	-1.620208
	-1.599830
	-1.599830
	-1.574359
	-1.543792
	-1.492849
	-1.472471
	-1.462283
	-1.482660
	-1.538698
	-1.599830
	-1.620208
	-1.666057
	-1.722095
	-1.737378
	-1.701717
	-1.686434
	-1.717000
	-1.717000
	-1.737378
	-1.798510
	-1.880020
	-1.971718
	-1.956435
	-1.966624
	-2.037945
	-2.134738
	-2.216247
	-2.216247
	-2.267191
	-2.414927
	-2.588135
	-2.639079
	-2.572852
	-2.506625
	-2.470965
	-2.445493
	-2.440399
	-2.470965
	-2.455682
	-2.435304
	-2.384361
	-2.374172
	-2.343606
	-2.257002
	-2.088888
	-1.895303
	-1.711906
	-1.579453
	-1.436811
	-1.238131
	-1.059829
	-0.861149
	-0.611526
	-0.412846
	-0.295676
	-0.254921
	-0.229449
	-0.270204
	-0.351713
	-0.463789
	-0.550393
	-0.667563
	-0.764356
	-0.861149
	-0.942659
	-0.983413
	-1.039451
	-1.095489
	-1.131150
	-1.166810
	-1.222848
	-1.314546
	-1.396056
	-1.503038
	-1.528509
	-1.559075
	-1.594736
	-1.615113
	-1.625302
	-1.625302
	-1.630396
	-1.625302
	-1.574359
	-1.523415
	-1.503038
	-1.467377
	-1.477566
	-1.487755
	-1.518321
	-1.523415
	-1.553981
	-1.564170
	-1.599830
	-1.655868
	-1.676246
	-1.681340
	-1.691529
	-1.676246
	-1.620208
	-1.559075
	-1.569264
	-1.569264
	-1.579453
	-1.615113
	-1.569264
	-1.564170
	-1.579453
	-1.625302
	-1.655868
	-1.686434
	-1.701717
	-1.722095
	-1.706812
	-1.671151
	-1.660963
	-1.655868
	-1.604925
	-1.599830
	-1.594736
	-1.569264
	-1.569264
	-1.599830
	-1.630396
	-1.640585
	-1.676246
	-1.660963
	-1.671151
	-1.681340
	-1.691529
	-1.696623
	-1.681340
	-1.691529
	-1.640585
	-1.620208
	-1.604925
	-1.610019
	-1.599830
	-1.610019
	-1.610019
	-1.625302
	-1.650774
	-1.691529
	-1.666057
	-1.681340
	-1.686434
	-1.696623
	-1.711906
	-1.711906
	-1.686434
	-1.686434
	-1.671151
	-1.650774
	-1.615113
	-1.564170
	-1.579453
	-1.610019
	-1.635491
	-1.660963
	-1.686434
	-1.686434
	-1.666057
	-1.671151
	-1.635491
	-1.610019
	-1.640585
	-1.650774
	-1.660963
	-1.640585
	-1.635491
	-1.630396
	-1.610019
	-1.620208
	-1.640585
	-1.650774
	-1.671151
	-1.635491
	-1.660963
	-1.671151
	-1.660963
	-1.676246
	-1.666057
	-1.640585
	-1.610019
	-1.635491
	-1.645680
	-1.655868
	-1.599830
	-1.553981
	-1.559075
	-1.538698
	-1.579453
	-1.630396
	-1.655868
	-1.655868
	-1.645680
	-1.655868
	-1.676246
	-1.655868
	-1.635491
	-1.625302
	-1.650774
	-1.681340
	-1.676246
	-1.620208
	-1.604925
	-1.610019
	-1.625302
	-1.640585
	-1.676246
	-1.666057
	-1.676246
	-1.686434
	-1.711906
	-1.717000
	-1.681340
	-1.660963
	-1.676246
	-1.706812
	-1.696623
	-1.686434
	-1.625302
	-1.604925
	-1.584547
	-1.589642
	-1.630396
	-1.635491
	-1.645680
	-1.650774
	-1.717000
	-1.711906
	-1.666057
	-1.640585
	-1.635491
	-1.625302
	-1.640585
	-1.635491
	-1.620208
	-1.599830
	-1.604925
	-1.620208
	-1.655868
	-1.655868
	-1.655868
	-1.666057
	-1.671151
	-1.681340
	-1.696623
	-1.696623
	-1.671151
	-1.640585
	-1.620208
	-1.630396
	-1.635491
	-1.640585
	-1.599830
	-1.574359
	-1.620208
	-1.671151
	-1.696623
	-1.722095
	-1.711906
	-1.701717
	-1.691529
	-1.686434
	-1.737378
	-1.711906
	-1.655868
	-1.630396
	-1.604925
	-1.584547
	-1.589642
	-1.635491
	-1.625302
	-1.640585
	-1.655868
	-1.666057
	-1.717000
	-1.747567
	-1.737378
	-1.722095
	-1.696623
	-1.655868
	-1.615113
	-1.610019
	-1.620208
	-1.635491
	-1.640585
	-1.666057
	-1.686434
	-1.696623
	-1.722095
	-1.732284
	-1.747567
	-1.747567
	-1.681340
	-1.681340
	-1.701717
	-1.717000
	-1.676246
	-1.640585
	-1.645680
	-1.630396
	-1.594736
	-1.610019
	-1.620208
	-1.615113
	-1.625302
	-1.655868
	-1.666057
	-1.666057
	-1.630396
	-1.604925
	-1.610019
	-1.594736
	-1.548887
	-1.523415
	-1.538698
	-1.553981
	-1.559075
	-1.559075
	-1.538698
	-1.518321
	-1.518321
	-1.533604
	-1.533604
	-1.543792
	-1.553981
	-1.528509
	-1.528509
	-1.548887
	-1.574359
	-1.574359
	-1.538698
	-1.497943
	-1.457188
	-1.447000
	-1.447000
	-1.426622
	-1.416434
	-1.447000
	-1.462283
	-1.457188
	-1.457188
	-1.487755
	-1.523415
	-1.543792
	-1.528509
	-1.497943
	-1.457188
	-1.385867
	-1.380773
	-1.416434
	-1.436811
	-1.385867
	-1.365490
	-1.355301
	-1.345113
	-1.345113
	-1.365490
	-1.416434
	-1.431717
	-1.426622
	-1.457188
	-1.457188
	-1.441905
	-1.406245
	-1.380773
	-1.375679
	-1.385867
	-1.396056
	-1.370584
	-1.370584
	-1.375679
	-1.390962
	-1.416434
	-1.452094
	-1.477566
	-1.472471
	-1.457188
	-1.497943
	-1.553981
	-1.533604
	-1.492849
	-1.426622
	-1.390962
	-1.396056
	-1.441905
	-1.467377
	-1.452094
	-1.441905
	-1.447000
	-1.426622
	-1.436811
	-1.452094
	-1.441905
	-1.467377
	-1.472471
	-1.503038
	-1.503038
	-1.472471
	-1.467377
	-1.462283
	-1.467377
	-1.452094
	-1.452094
	-1.503038
	-1.559075
	-1.584547
	-1.579453
	-1.594736
	-1.604925
	-1.584547
	-1.599830
	-1.584547
	-1.559075
	-1.538698
	-1.528509
	-1.528509
	-1.497943
	-1.477566
	-1.472471
	-1.508132
	-1.553981
	-1.579453
	-1.615113
	-1.635491
	-1.635491
	-1.681340
	-1.691529
	-1.676246
	-1.655868
	-1.650774
	-1.610019
	-1.569264
	-1.559075
	-1.548887
	-1.574359
	-1.579453
	-1.579453
	-1.574359
	-1.625302
	-1.660963
	-1.686434
	-1.681340
	-1.635491
	-1.625302
	-1.594736
	-1.604925
	-1.615113
	-1.610019
	-1.615113
	-1.589642
	-1.584547
	-1.594736
	-1.604925
	-1.589642
	-1.620208
	-1.650774
	-1.650774
	-1.681340
	-1.701717
	-1.701717
	-1.676246
	-1.655868
	-1.650774
	-1.650774
	-1.645680
	-1.640585
	-1.635491
	-1.640585
	-1.604925
	-1.574359
	-1.569264
	-1.599830
	-1.615113
	-1.620208
	-1.686434
	-1.711906
	-1.701717
	-1.706812
	-1.711906
	-1.717000
	-1.650774
	-1.620208
	-1.579453
	-1.579453
	-1.615113
	-1.625302
	-1.645680
	-1.660963
	-1.681340
	-1.676246
	-1.676246
	-1.686434
	-1.660963
	-1.655868
	-1.640585
	-1.640585
	-1.630396
	-1.620208
	-1.635491
	-1.620208
	-1.584547
	-1.574359
	-1.625302
	-1.620208
	-1.574359
	-1.599830
	-1.620208
	-1.650774
	-1.630396
	-1.635491
	-1.655868
	-1.660963
	-1.676246
	-1.630396
	-1.594736
	-1.599830
	-1.620208
	-1.645680
	-1.610019
	-1.604925
	-1.594736
	-1.610019
	-1.610019
	-1.579453
	-1.604925
	-1.584547
	-1.569264
	-1.594736
	-1.615113
	-1.635491
	-1.630396
	-1.559075
	-1.533604
	-1.559075
	-1.584547
	-1.559075
	-1.559075
	-1.538698
	-1.553981
	-1.564170
	-1.610019
	-1.630396
	-1.625302
	-1.671151
	-1.666057
	-1.686434
	-1.706812
	-1.666057
	-1.645680
	-1.599830
	-1.604925
	-1.569264
	-1.538698
	-1.518321
	-1.543792
	-1.584547
	-1.599830
	-1.630396
	-1.645680
	-1.640585
	-1.655868
	-1.645680
	-1.640585
	-1.620208
	-1.620208
	-1.645680
	-1.625302
	-1.630396
	-1.584547
	-1.594736
	-1.589642
	-1.589642
	-1.610019
	-1.630396
	-1.645680
	-1.620208
	-1.610019
	-1.660963
	-1.696623
	-1.650774
	-1.599830
	-1.574359
	-1.584547
	-1.559075
	-1.579453
	-1.564170
	-1.589642
	-1.559075
	-1.559075
	-1.610019
	-1.620208
	-1.604925
	-1.559075
	-1.569264
	-1.594736
	-1.615113
	-1.599830
	-1.589642
	-1.620208
	-1.594736
	-1.594736
	-1.564170
	-1.574359
	-1.610019
	-1.604925
	-1.599830
	-1.589642
	-1.594736
	-1.594736
	-1.569264
	-1.569264
	-1.594736
	-1.640585
	-1.640585
	-1.635491
	-1.620208
	-1.604925
	-1.604925
	-1.574359
	-1.599830
	-1.589642
	-1.579453
	-1.599830
	-1.610019
	-1.635491
	-1.671151
	-1.635491
	-1.620208
	-1.615113
	-1.615113
	-1.604925
	-1.589642
	-1.538698
	-1.548887
	-1.533604
	-1.548887
	-1.559075
	-1.569264
	-1.604925
	-1.599830
	-1.604925
	-1.574359
	-1.574359
	-1.635491
	-1.640585
	-1.660963
	-1.681340
	-1.650774
	-1.635491
	-1.620208
	-1.594736
	-1.548887
	-1.548887
	-1.523415
	-1.533604
	-1.579453
	-1.599830
	-1.594736
	-1.599830
	-1.610019
	-1.604925
	-1.569264
	-1.584547
	-1.569264
	-1.523415
	-1.518321
	-1.523415
	-1.564170
	-1.574359
	-1.579453
	-1.589642
	-1.635491
	-1.681340
	-1.630396
	-1.655868
	-1.655868
	-1.640585
	-1.640585
	-1.604925
	-1.615113
	-1.615113
	-1.594736
	-1.589642
	-1.589642
	-1.579453
	-1.559075
	-1.564170
	-1.564170
	-1.589642
	-1.604925
	-1.640585
	-1.666057
	-1.660963
	-1.660963
	-1.655868
	-1.640585
	-1.564170
	-1.523415
	-1.569264
	-1.553981
	-1.523415
	-1.523415
	-1.574359
	-1.574359
	-1.604925
	-1.625302
	-1.610019
	-1.594736
	-1.599830
	-1.625302
	-1.655868
	-1.660963
	-1.666057
	-1.645680
	-1.620208
	-1.594736
	-1.553981
	-1.533604
	-1.523415
	-1.548887
	-1.584547
	-1.620208
	-1.635491
	-1.615113
	-1.604925
	-1.594736
	-1.604925
	-1.640585
	-1.635491
	-1.645680
	-1.579453
	-1.553981
	-1.553981
	-1.569264
	-1.620208
	-1.650774
	-1.701717
	-1.655868
	-1.640585
	-1.650774
	-1.655868
	-1.655868
	-1.660963
	-1.676246
	-1.655868
	-1.645680
	-1.635491
	-1.599830
	-1.538698
	-1.523415
	-1.528509
	-1.533604
	-1.553981
	-1.553981
	-1.564170
	-1.599830
	-1.625302
	-1.635491
	-1.625302
	-1.625302
	-1.615113
	-1.594736
	-1.610019
	-1.579453
	-1.574359
	-1.548887
	-1.538698
	-1.523415
	-1.508132
	-1.528509
	-1.523415
	-1.559075
	-1.599830
	-1.620208
	-1.671151
	-1.701717
	-1.671151
	-1.666057
	-1.645680
	-1.615113
	-1.579453
	-1.579453
	-1.584547
	-1.574359
	-1.528509
	-1.508132
	-1.548887
	-1.564170
	-1.579453
	-1.594736
	-1.599830
	-1.599830
	-1.604925
	-1.640585
	-1.635491
	-1.615113
	-1.594736
	-1.579453
	-1.548887
	-1.518321
	-1.528509
	-1.543792
	-1.559075
	-1.584547
	-1.569264
	-1.574359
	-1.615113
	-1.640585
	-1.635491
	-1.666057
	-1.706812
	-1.706812
	-1.686434
	-1.615113
	-1.579453
	-1.559075
	-1.518321
	-1.523415
	-1.528509
	-1.538698
	-1.523415
	-1.543792
	-1.610019
	-1.625302
	-1.640585
	-1.625302
	-1.615113
	-1.650774
	-1.686434
	-1.691529
	-1.635491
	-1.625302
	-1.594736
	-1.559075
	-1.584547
	-1.599830
	-1.589642
	-1.604925
	-1.650774
	-1.640585
	-1.650774
	-1.645680
	-1.630396
	-1.650774
	-1.650774
	-1.635491
	-1.635491
	-1.625302
	-1.655868
	-1.645680
	-1.655868
	-1.666057
	-1.620208
	-1.594736
	-1.604925
	-1.666057
	-1.711906
	-1.696623
	-1.671151
	-1.640585
	-1.625302
	-1.640585
	-1.620208
	-1.579453
	-1.564170
	-1.599830
	-1.599830
	-1.594736
	-1.645680
	-1.660963
	-1.630396
	-1.620208
	-1.666057
	-1.640585
	-1.645680
	-1.645680
	-1.630396
	-1.615113
	-1.625302
	-1.625302
	-1.604925
	-1.620208
	-1.574359
	-1.564170
	-1.579453
	-1.599830
	-1.589642
	-1.538698
	-1.528509
	-1.538698
	-1.559075
	-1.564170
	-1.523415
	-1.503038
	-1.513226
	-1.548887
	-1.528509
	-1.548887
	-1.538698
	-1.518321
	-1.467377
	-1.426622
	-1.472471
	-1.487755
	-1.503038
	-1.513226
	-1.518321
	-1.538698
	-1.553981
	-1.569264
	-1.599830
	-1.599830
	-1.574359
	-1.574359
	-1.564170
	-1.528509
	-1.497943
	-1.548887
	-1.518321
	-1.523415
	-1.533604
	-1.564170
	-1.599830
	-1.589642
	-1.604925
	-1.630396
	-1.671151
	-1.615113
	-1.579453
	-1.564170
	-1.569264
	-1.574359
	-1.548887
	-1.538698
	-1.559075
	-1.553981
	-1.559075
	-1.569264
	-1.594736
	-1.625302
	-1.604925
	-1.599830
	-1.630396
	-1.640585
	-1.630396
	-1.610019
	-1.625302
	-1.594736
	-1.548887
	-1.528509
	-1.559075
	-1.553981
	-1.538698
	-1.533604
	-1.548887
	-1.564170
	-1.584547
	-1.610019
	-1.625302
	-1.615113
	-1.630396
	-1.660963
	-1.717000
	-1.655868
	-1.579453
	-1.589642
	-1.548887
	-1.497943
	-1.462283
	-1.487755
	-1.472471
	-1.497943
	-1.533604
	-1.564170
	-1.559075
	-1.574359
	-1.604925
	-1.615113
	-1.574359
	-1.569264
	-1.559075
	-1.538698
	-1.543792
	-1.579453
	-1.635491
	-1.630396
	-1.660963
	-1.660963
	-1.706812
	-1.778133
	-1.869831
	-1.951341
	-1.956435
	-2.002284
	-2.032850
	-2.083794
	-2.170398
	-2.190775
	-2.231530
	-2.267191
	-2.302851
	-2.338512
	-2.394550
	-2.501531
	-2.588135
	-2.613607
	-2.542286
	-2.486248
	-2.476059
	-2.420021
	-2.384361
	-2.358889
	-2.297757
	-2.180587
	-2.083794
	-1.956435
	-1.844359
	-1.701717
	-1.543792
	-1.431717
	-1.299263
	-1.171905
	-1.024168
	-0.861149
	-0.703224
	-0.601337
	-0.499450
	-0.412846
	-0.372091
	-0.356808
	-0.377185
	-0.479072
	-0.586054
	-0.642092
	-0.687941
	-0.728696
	-0.835677
	-0.947753
	-1.044546
	-1.131150
	-1.278886
	-1.380773
	-1.457188
	-1.487755
	-1.477566
	-1.538698
	-1.538698
	-1.477566
	-1.492849
	-1.518321
	-1.503038
	-1.487755
	-1.508132
	-1.538698
	-1.574359
	-1.584547
	-1.620208
	-1.635491
	-1.650774
	-1.655868
	-1.645680
	-1.640585
	-1.635491
	-1.610019
	-1.599830
	-1.564170
	-1.599830
	-1.635491
	-1.615113
	-1.604925
	-1.564170
	-1.523415
	-1.492849
	-1.543792
	-1.569264
	-1.615113
	-1.610019
	-1.635491
	-1.660963
	-1.676246
	-1.645680
	-1.610019
	-1.594736
	-1.569264
	-1.579453
	-1.559075
	-1.564170
	-1.569264
	-1.640585
	-1.686434
	-1.650774
	-1.671151
	-1.717000
	-1.737378
	-1.711906
	-1.696623
	-1.671151
	-1.655868
	-1.615113
	-1.559075
	-1.538698
	-1.604925
	-1.625302
	-1.604925
	-1.564170
	-1.569264
	-1.645680
	-1.666057
	-1.635491
	-1.584547
	-1.594736
	-1.589642
	-1.625302
	-1.604925
	-1.599830
	-1.630396
	-1.660963
	-1.655868
	-1.630396
	-1.625302
	-1.620208
	-1.635491
	-1.620208
	-1.604925
	-1.620208
	-1.635491
	-1.640585
	-1.660963
	-1.655868
	-1.620208
	-1.569264
	-1.569264
	-1.610019
	-1.625302
	-1.650774
	-1.630396
	-1.635491
	-1.640585
	-1.660963
	-1.650774
	-1.666057
	-1.660963
	-1.671151
	-1.691529
	-1.711906
	-1.722095
	-1.691529
	-1.660963
	-1.630396
	-1.610019
	-1.564170
	-1.579453
	-1.548887
	-1.559075
	-1.569264
	-1.584547
	-1.564170
	-1.574359
	-1.599830
	-1.610019
	-1.610019
	-1.620208
	-1.660963
	-1.645680
	-1.625302
	-1.599830
	-1.594736
	-1.604925
	-1.615113
	-1.620208
	-1.589642
	-1.599830
	-1.635491
	-1.650774
	-1.666057
	-1.691529
	-1.711906
	-1.757755
	-1.737378
	-1.701717
	-1.660963
	-1.625302
	-1.671151
	-1.711906
	-1.671151
	-1.671151
	-1.686434
	-1.671151
	-1.696623
	-1.666057
	-1.645680
	-1.640585
	-1.640585
	-1.660963
	-1.630396
	-1.615113
	-1.594736
	-1.589642
	-1.599830
	-1.594736
	-1.574359
	-1.589642
	-1.579453
	-1.538698
	-1.559075
	-1.589642
	-1.620208
	-1.655868
	-1.660963
	-1.645680
	-1.635491
	-1.645680
	-1.655868
	-1.635491
	-1.599830
	-1.604925
	-1.615113
	-1.635491
	-1.599830
	-1.599830
	-1.584547
	-1.589642
	-1.604925
	-1.645680
	-1.650774
	-1.660963
	-1.696623
	-1.752661
	-1.762850
	-1.747567
	-1.711906
	-1.666057
	-1.635491
	-1.630396
	-1.594736
	-1.569264
	-1.589642
	-1.589642
	-1.599830
	-1.630396
	-1.645680
	-1.660963
	-1.660963
	-1.660963
	-1.650774
	-1.676246
	-1.681340
	-1.645680
	-1.640585
	-1.701717
	-1.706812
	-1.711906
	-1.671151
	-1.660963
	-1.671151
	-1.686434
	-1.722095
	-1.757755
	-1.762850
	-1.742472
	-1.737378
	-1.681340
	-1.666057
	-1.650774
	-1.640585
	-1.615113
	-1.584547
	-1.594736
	-1.599830
	-1.599830
	-1.599830
	-1.620208
	-1.650774
	-1.666057
	-1.701717
	-1.686434
	-1.671151
	-1.635491
	-1.615113
	-1.620208
	-1.553981
	-1.548887
	-1.538698
	-1.518321
	-1.559075
	-1.538698
	-1.538698
	-1.553981
	-1.615113
	-1.645680
	-1.666057
	-1.630396
	-1.589642
	-1.589642
	-1.620208
	-1.635491
	-1.569264
	-1.513226
	-1.508132
	-1.513226
	-1.508132
	-1.513226
	-1.497943
	-1.477566
	-1.477566
	-1.497943
	-1.497943
	-1.523415
	-1.518321
	-1.508132
	-1.492849
	-1.462283
	-1.472471
	-1.477566
	-1.436811
	-1.421528
	-1.375679
	-1.380773
	-1.385867
	-1.396056
	-1.396056
	-1.390962
	-1.401150
	-1.385867
	-1.355301
	-1.370584
	-1.396056
	-1.426622
	-1.426622
	-1.436811
	-1.431717
	-1.416434
	-1.416434
	-1.385867
	-1.396056
	-1.416434
	-1.436811
	-1.431717
	-1.452094
	-1.472471
	-1.482660
	-1.482660
	-1.462283
	-1.457188
	-1.457188
	-1.441905
	-1.431717
	-1.411339
	-1.426622
	-1.411339
	-1.375679
	-1.355301
	-1.375679
	-1.406245
	-1.426622
	-1.436811
	-1.462283
	-1.447000
	-1.452094
	-1.462283
	-1.462283
	-1.462283
	-1.452094
	-1.441905
	-1.441905
	-1.426622
	-1.452094
	-1.462283
	-1.457188
	-1.472471
	-1.472471
	-1.477566
	-1.487755
	-1.487755
	-1.497943
	-1.497943
	-1.533604
	-1.553981
	-1.508132
	-1.513226
	-1.518321
	-1.538698
	-1.523415
	-1.518321
	-1.523415
	-1.503038
	-1.492849
	-1.492849
	-1.518321
	-1.528509
	-1.523415
	-1.538698
	-1.564170
	-1.660963
	-1.676246
	-1.660963
	-1.630396
	-1.604925
	-1.574359
	-1.518321
	-1.508132
	-1.513226
	-1.477566
	-1.487755
	-1.513226
	-1.548887
	-1.553981
	-1.574359
	-1.569264
	-1.564170
	-1.610019
	-1.640585
	-1.640585
	-1.589642
	-1.589642
	-1.594736
	-1.523415
	-1.513226
	-1.503038
	-1.518321
	-1.538698
	-1.589642
	-1.599830
	-1.599830
	-1.620208
	-1.655868
	-1.671151
	-1.660963
	-1.681340
	-1.671151
	-1.635491
	-1.599830
	-1.564170
	-1.564170
	-1.615113
	-1.635491
	-1.625302
	-1.559075
	-1.594736
	-1.635491
	-1.645680
	-1.625302
	-1.625302
	-1.655868
	-1.640585
	-1.655868
	-1.660963
	-1.610019
	-1.625302
	-1.640585
	-1.604925
	-1.574359
	-1.569264
	-1.589642
	-1.599830
	-1.620208
	-1.650774
	-1.691529
	-1.717000
	-1.701717
	-1.696623
	-1.696623
	-1.711906
	-1.671151
	-1.650774
	-1.645680
	-1.594736
	-1.579453
	-1.589642
	-1.594736
	-1.594736
	-1.610019
	-1.630396
	-1.610019
	-1.589642
	-1.615113
	-1.604925
	-1.604925
	-1.604925
	-1.615113
	-1.615113
	-1.574359
	-1.579453
	-1.599830
	-1.635491
	-1.594736
	-1.599830
	-1.559075
	-1.599830
	-1.615113
	-1.610019
	-1.630396
	-1.640585
	-1.660963
	-1.681340
	-1.671151
	-1.676246
	-1.640585
	-1.671151
	-1.671151
	-1.630396
	-1.589642
	-1.579453
	-1.620208
	-1.635491
	-1.620208
	-1.620208
	-1.599830
	-1.610019
	-1.640585
	-1.655868
	-1.671151
	-1.676246
	-1.671151
	-1.630396
	-1.584547
	-1.564170
	-1.564170
	-1.579453
	-1.599830
	-1.620208
	-1.655868
	-1.671151
	-1.671151
	-1.681340
	-1.701717
	-1.686434
	-1.671151
	-1.691529
	-1.691529
	-1.650774
	-1.630396
	-1.630396
	-1.620208
	-1.610019
	-1.604925
	-1.625302
	-1.615113
	-1.620208
	-1.635491
	-1.655868
	-1.701717
	-1.686434
	-1.696623
	-1.691529
	-1.696623
	-1.660963
	-1.630396
	-1.610019
	-1.610019
	-1.574359
	-1.569264
	-1.574359
	-1.599830
	-1.594736
	-1.630396
	-1.610019
	-1.599830
	-1.625302
	-1.635491
	-1.655868
	-1.640585
	-1.635491
	-1.610019
	-1.594736
	-1.604925
	-1.574359
	-1.559075
	-1.559075
	-1.579453
	-1.599830
	-1.620208
	-1.640585
	-1.655868
	-1.671151
	-1.696623
	-1.681340
	-1.691529
	-1.686434
	-1.701717
	-1.717000
	-1.681340
	-1.630396
	-1.579453
	-1.569264
	-1.579453
	-1.620208
	-1.615113
	-1.604925
	-1.604925
	-1.579453
	-1.615113
	-1.599830
	-1.615113
	-1.635491
	-1.635491
	-1.599830
	-1.594736
	-1.625302
	-1.615113
	-1.579453
	-1.528509
	-1.533604
	-1.538698
	-1.564170
	-1.604925
	-1.620208
	-1.630396
	-1.655868
	-1.676246
	-1.655868
	-1.635491
	-1.650774
	-1.640585
	-1.615113
	-1.610019
	-1.589642
	-1.569264
	-1.559075
	-1.553981
	-1.559075
	-1.574359
	-1.589642
	-1.594736
	-1.630396
	-1.650774
	-1.645680
	-1.645680
	-1.655868
	-1.660963
	-1.635491
	-1.620208
	-1.594736
	-1.559075
	-1.553981
	-1.548887
	-1.559075
	-1.559075
	-1.569264
	-1.604925
	-1.599830
	-1.599830
	-1.620208
	-1.640585
	-1.620208
	-1.604925
	-1.594736
	-1.594736
	-1.579453
	-1.579453
	-1.594736
	-1.594736
	-1.589642
	-1.569264
	-1.574359
	-1.589642
	-1.604925
	-1.630396
	-1.620208
	-1.610019
	-1.620208
	-1.620208
	-1.666057
	-1.635491
	-1.589642
	-1.569264
	-1.564170
	-1.579453
	-1.599830
	-1.589642
	-1.579453
	-1.615113
	-1.620208
	-1.599830
	-1.625302
	-1.650774
	-1.645680
	-1.640585
	-1.635491
	-1.635491
	-1.610019
	-1.594736
	-1.574359
	-1.569264
	-1.594736
	-1.599830
	-1.594736
	-1.620208
	-1.645680
	-1.620208
	-1.615113
	-1.620208
	-1.604925
	-1.599830
	-1.599830
	-1.599830
	-1.594736
	-1.559075
	-1.548887
	-1.559075
	-1.574359
	-1.569264
	-1.564170
	-1.584547
	-1.610019
	-1.620208
	-1.620208
	-1.620208
	-1.676246
	-1.645680
	-1.640585
	-1.645680
	-1.671151
	-1.660963
	-1.615113
	-1.604925
	-1.594736
	-1.579453
	-1.564170
	-1.599830
	-1.569264
	-1.564170
	-1.599830
	-1.620208
	-1.620208
	-1.615113
	-1.599830
	-1.594736
	-1.599830
	-1.599830
	-1.579453
	-1.569264
	-1.538698
	-1.548887
	-1.553981
	-1.543792
	-1.574359
	-1.569264
	-1.604925
	-1.615113
	-1.620208
	-1.635491
	-1.640585
	-1.640585
	-1.630396
	-1.640585
	-1.640585
	-1.599830
	-1.574359
	-1.543792
	-1.518321
	-1.523415
	-1.569264
	-1.610019
	-1.640585
	-1.676246
	-1.676246
	-1.650774
	-1.640585
	-1.620208
	-1.574359
	-1.564170
	-1.579453
	-1.579453
	-1.543792
	-1.528509
	-1.528509
	-1.528509
	-1.564170
	-1.630396
	-1.610019
	-1.589642
	-1.620208
	-1.655868
	-1.650774
	-1.615113
	-1.615113
	-1.615113
	-1.615113
	-1.599830
	-1.574359
	-1.559075
	-1.548887
	-1.538698
	-1.543792
	-1.548887
	-1.569264
	-1.584547
	-1.620208
	-1.645680
	-1.676246
	-1.660963
	-1.635491
	-1.640585
	-1.645680
	-1.630396
	-1.645680
	-1.630396
	-1.604925
	-1.564170
	-1.569264
	-1.569264
	-1.543792
	-1.548887
	-1.559075
	-1.589642
	-1.604925
	-1.640585
	-1.655868
	-1.676246
	-1.635491
	-1.594736
	-1.594736
	-1.594736
	-1.584547
	-1.579453
	-1.599830
	-1.604925
	-1.610019
	-1.599830
	-1.589642
	-1.610019
	-1.640585
	-1.620208
	-1.635491
	-1.660963
	-1.686434
	-1.681340
	-1.671151
	-1.711906
	-1.711906
	-1.660963
	-1.615113
	-1.610019
	-1.630396
	-1.635491
	-1.620208
	-1.599830
	-1.620208
	-1.676246
	-1.696623
	-1.706812
	-1.681340
	-1.691529
	-1.686434
	-1.681340
	-1.671151
	-1.650774
	-1.635491
	-1.604925
	-1.615113
	-1.589642
	-1.579453
	-1.604925
	-1.630396
	-1.706812
	-1.686434
	-1.696623
	-1.696623
	-1.655868
	-1.635491
	-1.655868
	-1.660963
	-1.625302
	-1.620208
	-1.640585
	-1.620208
	-1.569264
	-1.528509
	-1.497943
	-1.508132
	-1.533604
	-1.589642
	-1.599830
	-1.599830
	-1.589642
	-1.599830
	-1.604925
	-1.594736
	-1.599830
	-1.599830
	-1.589642
	-1.569264
	-1.548887
	-1.548887
	-1.508132
	-1.492849
	-1.457188
	-1.457188
	-1.477566
	-1.492849
	-1.497943
	-1.513226
	-1.518321
	-1.513226
	-1.513226
	-1.523415
	-1.492849
	-1.492849
	-1.497943
	-1.513226
	-1.523415
	-1.508132
	-1.518321
	-1.538698
	-1.543792
	-1.528509
	-1.538698
	-1.564170
	-1.543792
	-1.564170
	-1.594736
	-1.579453
	-1.553981
	-1.548887
	-1.543792
	-1.548887
	-1.528509
	-1.508132
	-1.518321
	-1.538698
	-1.569264
	-1.579453
	-1.620208
	-1.615113
	-1.625302
	-1.640585
	-1.615113
	-1.615113
	-1.645680
	-1.620208
	-1.604925
	-1.615113
	-1.599830
	-1.548887
	-1.538698
	-1.574359
	-1.569264
	-1.579453
	-1.589642
	-1.569264
	-1.548887
	-1.589642
	-1.620208
	-1.620208
	-1.594736
	-1.589642
	-1.569264
	-1.553981
	-1.538698
	-1.518321
	-1.559075
	-1.599830
	-1.589642
	-1.559075
	-1.589642
	-1.610019
	-1.615113
	-1.610019
	-1.584547
	-1.579453
	-1.589642
	-1.599830
	-1.599830
	-1.589642
	-1.594736
	-1.594736
	-1.574359
	-1.559075
	-1.574359
	-1.569264
	-1.564170
	-1.559075
	-1.574359
	-1.594736
	-1.625302
	-1.635491
	-1.666057
	-1.660963
	-1.660963
	-1.660963
	-1.681340
	-1.701717
	-1.737378
	-1.788321
	-1.854548
	-1.900397
	-1.966624
	-2.048134
	-2.078700
	-2.139832
	-2.216247
	-2.297757
	-2.389455
	-2.455682
	-2.537192
	-2.633984
	-2.659456
	-2.695117
	-2.684928
	-2.633984
	-2.572852
	-2.527003
	-2.496437
	-2.476059
	-2.460776
	-2.435304
	-2.374172
	-2.323229
	-2.150021
	-1.981907
	-1.808699
	-1.620208
	-1.467377
	-1.329830
	-1.192282
	-1.029263
	-0.850960
	-0.662469
	-0.473978
	-0.305864
	-0.168317
	-0.127562
	-0.153034
	-0.244732
	-0.366996
	-0.473978
	-0.555488
	-0.652280
	-0.743979
	-0.830583
	-0.927375
	-1.003791
	-1.049640
	-1.136244
	-1.248320
	-1.324735
	-1.365490
	-1.365490
	-1.385867
	-1.426622
	-1.452094
	-1.472471
	-1.503038
	-1.538698
	-1.543792
	-1.548887
	-1.548887
	-1.559075
	-1.543792
	-1.508132
	-1.533604
	-1.528509
	-1.528509
	-1.533604
	-1.564170
	-1.589642
	-1.615113
	-1.620208
	-1.615113
	-1.594736
	-1.574359
	-1.599830
	-1.604925
	-1.615113
	-1.579453
	-1.574359
	-1.615113
	-1.640585
	-1.640585
	-1.604925
	-1.564170
	-1.584547
	-1.615113
	-1.635491
	-1.635491
	-1.604925
	-1.630396
	-1.604925
	-1.604925
	-1.589642
	-1.543792
	-1.523415
	-1.497943
	-1.533604
	-1.559075
	-1.564170
	-1.589642
	-1.584547
	-1.599830
	-1.594736
	-1.650774
	-1.650774
	-1.655868
	-1.645680
	-1.640585
	-1.650774
	-1.625302
	-1.604925
	-1.589642
	-1.574359
	-1.610019
	-1.599830
	-1.599830
	-1.610019
	-1.640585
	-1.671151
	-1.660963
	-1.701717
	-1.706812
	-1.711906
	-1.701717
	-1.681340
	-1.650774
	-1.625302
	-1.594736
	-1.569264
	-1.574359
	-1.564170
	-1.579453
	-1.604925
	-1.604925
	-1.630396
	-1.630396
	-1.640585
	-1.660963
	-1.640585
	-1.640585
	-1.660963
	-1.681340
	-1.666057
	-1.686434
	-1.681340
	-1.660963
	-1.630396
	-1.599830
	-1.610019
	-1.630396
	-1.630396
	-1.640585
	-1.635491
	-1.660963
	-1.676246
	-1.681340
	-1.655868
	-1.655868
	-1.640585
	-1.610019
	-1.594736
	-1.640585
	-1.660963
	-1.671151
	-1.650774
	-1.604925
	-1.584547
	-1.574359
	-1.594736
	-1.620208
	-1.640585
	-1.650774
	-1.660963
	-1.640585
	-1.645680
	-1.610019
	-1.579453
	-1.569264
	-1.564170
	-1.584547
	-1.594736
	-1.579453
	-1.574359
	-1.604925
	-1.640585
	-1.676246
	-1.727189
	-1.747567
	-1.732284
	-1.727189
	-1.706812
	-1.727189
	-1.691529
	-1.686434
	-1.666057
	-1.630396
	-1.604925
	-1.589642
	-1.604925
	-1.610019
	-1.625302
	-1.645680
	-1.640585
	-1.625302
	-1.630396
	-1.686434
	-1.711906
	-1.696623
	-1.660963
	-1.620208
	-1.625302
	-1.625302
	-1.630396
	-1.620208
	-1.599830
	-1.640585
	-1.655868
	-1.711906
	-1.717000
	-1.711906
	-1.701717
	-1.686434
	-1.666057
	-1.635491
	-1.655868
	-1.660963
	-1.620208
	-1.625302
	-1.645680
	-1.635491
	-1.615113
	-1.625302
	-1.650774
	-1.686434
	-1.706812
	-1.696623
	-1.722095
	-1.706812
	-1.681340
	-1.701717
	-1.676246
	-1.666057
	-1.660963
	-1.681340
	-1.701717
	-1.711906
	-1.717000
	-1.686434
	-1.666057
	-1.650774
	-1.655868
	-1.686434
	-1.676246
	-1.660963
	-1.676246
	-1.701717
	-1.701717
	-1.711906
	-1.681340
	-1.640585
	-1.625302
	-1.620208
	-1.630396
	-1.645680
	-1.635491
	-1.640585
	-1.645680
	-1.711906
	-1.742472
	-1.757755
	-1.732284
	-1.701717
	-1.681340
	-1.676246
	-1.706812
	-1.722095
	-1.686434
	-1.660963
	-1.635491
	-1.604925
	-1.599830
	-1.589642
	-1.574359
	-1.579453
	-1.610019
	-1.640585
	-1.660963
	-1.640585
	-1.645680
	-1.630396
	-1.630396
	-1.655868
	-1.620208
	-1.620208
	-1.620208
	-1.604925
	-1.594736
	-1.599830
	-1.599830
	-1.579453
	-1.543792
	-1.533604
	-1.538698
	-1.564170
	-1.574359
	-1.579453
	-1.564170
	-1.569264
	-1.599830
	-1.548887
	-1.508132
	-1.492849
	-1.477566
	-1.508132
	-1.487755
	-1.477566
	-1.462283
	-1.477566
	-1.472471
	-1.467377
	-1.487755
	-1.487755
	-1.503038
	-1.492849
	-1.523415
	-1.497943
	-1.426622
	-1.380773
	-1.345113
	-1.365490
	-1.360396
	-1.329830
	-1.319641
	-1.309452
	-1.334924
	-1.334924
	-1.319641
	-1.324735
	-1.375679
	-1.390962
	-1.406245
	-1.447000
	-1.436811
	-1.441905
	-1.411339
	-1.370584
	-1.365490
	-1.401150
	-1.390962
	-1.385867
	-1.411339
	-1.436811
	-1.406245
	-1.401150
	-1.457188
	-1.477566
	-1.472471
	-1.472471
	-1.467377
	-1.452094
	-1.411339
	-1.385867
	-1.365490
	-1.401150
	-1.421528
	-1.411339
	-1.390962
	-1.390962
	-1.401150
	-1.431717
	-1.457188
	-1.472471
	-1.477566
	-1.487755
	-1.497943
	-1.477566
	-1.457188
	-1.472471
	-1.497943
	-1.508132
	-1.518321
	-1.482660
	-1.497943
	-1.518321
	-1.548887
	-1.513226
	-1.503038
	-1.513226
	-1.559075
	-1.579453
	-1.584547
	-1.589642
	-1.553981
	-1.569264
	-1.538698
	-1.513226
	-1.492849
	-1.497943
	-1.497943
	-1.528509
	-1.574359
	-1.604925
	-1.620208
	-1.630396
	-1.645680
	-1.650774
	-1.666057
	-1.691529
	-1.640585
	-1.599830
	-1.548887
	-1.533604
	-1.543792
	-1.574359
	-1.548887
	-1.553981
	-1.538698
	-1.564170
	-1.615113
	-1.620208
	-1.625302
	-1.645680
	-1.655868
	-1.620208
	-1.635491
	-1.645680
	-1.645680
	-1.655868
	-1.645680
	-1.645680
	-1.625302
	-1.584547
	-1.574359
	-1.589642
	-1.630396
	-1.681340
	-1.655868
	-1.666057
	-1.676246
	-1.676246
	-1.640585
	-1.630396
	-1.625302
	-1.620208
	-1.604925
	-1.594736
	-1.599830
	-1.610019
	-1.589642
	-1.589642
	-1.589642
	-1.625302
	-1.635491
	-1.655868
	-1.676246
	-1.671151
	-1.655868
	-1.686434
	-1.696623
	-1.676246
	-1.655868
	-1.635491
	-1.620208
	-1.620208
	-1.569264
	-1.559075
	-1.559075
	-1.599830
	-1.604925
	-1.625302
	-1.660963
	-1.640585
	-1.635491
	-1.645680
	-1.645680
	-1.610019
	-1.584547
	-1.574359
	-1.579453
	-1.615113
	-1.610019
	-1.579453
	-1.579453
	-1.599830
	-1.625302
	-1.696623
	-1.752661
	-1.767944
	-1.722095
	-1.722095
	-1.691529
	-1.681340
	-1.640585
	-1.615113
	-1.594736
	-1.548887
	-1.533604
	-1.543792
	-1.584547
	-1.604925
	-1.640585
	-1.671151
	-1.671151
	-1.620208
	-1.635491
	-1.650774
	-1.650774
	-1.635491
	-1.620208
	-1.604925
	-1.594736
	-1.559075
	-1.579453
	-1.604925
	-1.594736
	-1.579453
	-1.599830
	-1.640585
	-1.625302
	-1.635491
	-1.645680
	-1.625302
	-1.610019
	-1.610019
	-1.635491
	-1.630396
	-1.615113
	-1.615113
	-1.604925
	-1.625302
	-1.610019
	-1.569264
	-1.548887
	-1.553981
	-1.584547
	-1.599830
	-1.625302
	-1.640585
	-1.635491
	-1.671151
	-1.660963
	-1.650774
	-1.635491
	-1.579453
	-1.559075
	-1.559075
	-1.569264
	-1.559075
	-1.564170
	-1.584547
	-1.604925
	-1.615113
	-1.625302
	-1.640585
	-1.660963
	-1.655868
	-1.620208
	-1.620208
	-1.615113
	-1.589642
	-1.559075
	-1.543792
	-1.538698
	-1.559075
	-1.559075
	-1.569264
	-1.579453
	-1.630396
	-1.625302
	-1.604925
	-1.599830
	-1.599830
	-1.604925
	-1.645680
	-1.630396
	-1.604925
	-1.559075
	-1.543792
	-1.528509
	-1.528509
	-1.548887
	-1.559075
	-1.559075
	-1.553981
	-1.579453
	-1.630396
	-1.630396
	-1.635491
	-1.625302
	-1.666057
	-1.676246
	-1.655868
	-1.640585
	-1.620208
	-1.574359
	-1.574359
	-1.599830
	-1.548887
	-1.533604
	-1.538698
	-1.579453
	-1.610019
	-1.610019
	-1.640585
	-1.676246
	-1.681340
	-1.671151
	-1.650774
	-1.620208
	-1.589642
	-1.574359
	-1.579453
	-1.574359
	-1.584547
	-1.579453
	-1.594736
	-1.615113
	-1.625302
	-1.635491
	-1.635491
	-1.635491
	-1.630396
	-1.655868
	-1.660963
	-1.666057
	-1.655868
	-1.604925
	-1.604925
	-1.584547
	-1.564170
	-1.543792
	-1.553981
	-1.559075
	-1.599830
	-1.574359
	-1.589642
	-1.645680
	-1.681340
	-1.671151
	-1.671151
	-1.686434
	-1.676246
	-1.615113
	-1.564170
	-1.553981
	-1.553981
	-1.553981
	-1.548887
	-1.543792
	-1.553981
	-1.599830
	-1.630396
	-1.645680
	-1.650774
	-1.635491
	-1.630396
	-1.620208
	-1.615113
	-1.610019
	-1.615113
	-1.599830
	-1.548887
	-1.579453
	-1.589642
	-1.579453
	-1.574359
	-1.569264
	-1.574359
	-1.579453
	-1.610019
	-1.640585
	-1.645680
	-1.650774
	-1.620208
	-1.630396
	-1.635491
	-1.635491
	-1.604925
	-1.574359
	-1.553981
	-1.579453
	-1.589642
	-1.589642
	-1.599830
	-1.604925
	-1.604925
	-1.599830
	-1.604925
	-1.620208
	-1.630396
	-1.650774
	-1.650774
	-1.604925
	-1.594736
	-1.610019
	-1.599830
	-1.599830
	-1.579453
	-1.559075
	-1.574359
	-1.594736
	-1.594736
	-1.620208
	-1.615113
	-1.635491
	-1.660963
	-1.671151
	-1.666057
	-1.660963
	-1.620208
	-1.589642
	-1.564170
	-1.559075
	-1.584547
	-1.569264
	-1.594736
	-1.599830
	-1.604925
	-1.620208
	-1.610019
	-1.604925
	-1.610019
	-1.620208
	-1.610019
	-1.604925
	-1.599830
	-1.589642
	-1.610019
	-1.589642
	-1.559075
	-1.564170
	-1.553981
	-1.559075
	-1.574359
	-1.594736
	-1.599830
	-1.620208
	-1.655868
	-1.645680
	-1.620208
	-1.604925
	-1.620208
	-1.604925
	-1.569264
	-1.559075
	-1.569264
	-1.620208
	-1.599830
	-1.579453
	-1.589642
	-1.599830
	-1.625302
	-1.630396
	-1.630396
	-1.604925
	-1.615113
	-1.599830
	-1.615113
	-1.630396
	-1.615113
	-1.594736
	-1.589642
	-1.569264
	-1.559075
	-1.538698
	-1.548887
	-1.548887
	-1.569264
	-1.610019
	-1.640585
	-1.640585
	-1.640585
	-1.660963
	-1.655868
	-1.645680
	-1.615113
	-1.559075
	-1.538698
	-1.538698
	-1.533604
	-1.553981
	-1.559075
	-1.564170
	-1.574359
	-1.599830
	-1.630396
	-1.650774
	-1.701717
	-1.691529
	-1.666057
	-1.640585
	-1.645680
	-1.604925
	-1.579453
	-1.584547
	-1.579453
	-1.574359
	-1.569264
	-1.589642
	-1.574359
	-1.569264
	-1.625302
	-1.686434
	-1.686434
	-1.630396
	-1.599830
	-1.599830
	-1.620208
	-1.645680
	-1.640585
	-1.645680
	-1.620208
	-1.599830
	-1.620208
	-1.594736
	-1.620208
	-1.559075
	-1.548887
	-1.579453
	-1.635491
	-1.666057
	-1.666057
	-1.676246
	-1.696623
	-1.696623
	-1.671151
	-1.640585
	-1.620208
	-1.620208
	-1.615113
	-1.599830
	-1.584547
	-1.584547
	-1.589642
	-1.645680
	-1.645680
	-1.630396
	-1.630396
	-1.640585
	-1.660963
	-1.676246
	-1.676246
	-1.660963
	-1.620208
	-1.604925
	-1.625302
	-1.645680
	-1.620208
	-1.625302
	-1.589642
	-1.610019
	-1.655868
	-1.640585
	-1.645680
	-1.635491
	-1.610019
	-1.630396
	-1.655868
	-1.655868
	-1.615113
	-1.594736
	-1.589642
	-1.599830
	-1.599830
	-1.589642
	-1.594736
	-1.615113
	-1.635491
	-1.660963
	-1.645680
	-1.630396
	-1.620208
	-1.610019
	-1.584547
	-1.559075
	-1.508132
	-1.462283
	-1.467377
	-1.452094
	-1.457188
	-1.452094
	-1.447000
	-1.436811
	-1.452094
	-1.472471
	-1.477566
	-1.508132
	-1.548887
	-1.553981
	-1.538698
	-1.492849
	-1.503038
	-1.497943
	-1.533604
	-1.553981
	-1.574359
	-1.584547
	-1.503038
	-1.457188
	-1.472471
	-1.518321
	-1.589642
	-1.564170
	-1.559075
	-1.559075
	-1.564170
	-1.599830
	-1.604925
	-1.574359
	-1.543792
	-1.548887
	-1.533604
	-1.497943
	-1.508132
	-1.533604
	-1.523415
	-1.518321
	-1.553981
	-1.594736
	-1.579453
	-1.579453
	-1.584547
	-1.589642
	-1.604925
	-1.610019
	-1.615113
	-1.569264
	-1.559075
	-1.553981
	-1.559075
	-1.559075
	-1.584547
	-1.620208
	-1.574359
	-1.610019
	-1.645680
	-1.640585
	-1.671151
	-1.630396
	-1.625302
	-1.645680
	-1.676246
	-1.645680
	-1.620208
	-1.594736
	-1.604925
	-1.589642
	-1.569264
	-1.559075
	-1.559075
	-1.574359
	-1.620208
	-1.625302
	-1.620208
	-1.635491
	-1.650774
	-1.660963
	-1.630396
	-1.620208
	-1.599830
	-1.574359
	-1.538698
	-1.503038
	-1.508132
	-1.477566
	-1.533604
	-1.553981
	-1.620208
	-1.671151
	-1.722095
	-1.722095
	-1.722095
	-1.727189
	-1.742472
	-1.742472
	-1.778133
	-1.823982
	-1.869831
	-1.900397
	-1.920775
	-2.002284
	-2.083794
	-2.190775
	-2.287568
	-2.374172
	-2.465871
	-2.577946
	-2.679834
	-2.705305
	-2.695117
	-2.674739
	-2.664550
	-2.583041
	-2.521909
	-2.486248
	-2.460776
	-2.430210
	-2.384361
	-2.353795
	-2.257002
	-2.139832
	-1.997190
	-1.778133
	-1.666057
	-1.523415
	-1.375679
	-1.192282
	-0.998696
	-0.779639
	-0.530016
	-0.351713
	-0.229449
	-0.193788
	-0.183600
	-0.193788
	-0.234543
	-0.321147
	-0.453601
	-0.591148
	-0.703224
	-0.815300
	-0.856055
	-0.973225
	-1.049640
	-1.110772
	-1.192282
	-1.248320
	-1.299263
	-1.329830
	-1.365490
	-1.431717
	-1.467377
	-1.482660
	-1.503038
	-1.543792
	-1.584547
	-1.594736
	-1.615113
	-1.615113
	-1.610019
	-1.594736
	-1.589642
	-1.564170
	-1.533604
	-1.533604
	-1.518321
	-1.518321
	-1.538698
	-1.564170
	-1.574359
	-1.574359
	-1.599830
	-1.620208
	-1.625302
	-1.640585
	-1.655868
	-1.655868
	-1.655868
	-1.671151
	-1.630396
	-1.604925
	-1.630396
	-1.635491
	-1.610019
	-1.574359
	-1.584547
	-1.569264
	-1.599830
	-1.635491
	-1.650774
	-1.635491
	-1.635491
	-1.666057
	-1.645680
	-1.655868
	-1.701717
	-1.671151
	-1.620208
	-1.574359
	-1.553981
	-1.594736
	-1.610019
	-1.604925
	-1.645680
	-1.676246
	-1.676246
	-1.671151
	-1.671151
	-1.676246
	-1.691529
	-1.696623
	-1.671151
	-1.635491
	-1.625302
	-1.604925
	-1.564170
	-1.579453
	-1.594736
	-1.640585
	-1.635491
	-1.620208
	-1.630396
	-1.635491
	-1.630396
	-1.666057
	-1.671151
	-1.655868
	-1.655868
	-1.655868
	-1.620208
	-1.594736
	-1.610019
	-1.604925
	-1.589642
	-1.594736
	-1.620208
	-1.625302
	-1.604925
	-1.635491
	-1.640585
	-1.666057
	-1.691529
	-1.717000
	-1.701717
	-1.660963
	-1.676246
	-1.660963
	-1.635491
	-1.635491
	-1.635491
	-1.635491
	-1.635491
	-1.640585
	-1.640585
	-1.635491
	-1.640585
	-1.660963
	-1.681340
	-1.681340
	-1.686434
	-1.650774
	-1.620208
	-1.620208
	-1.615113
	-1.574359
	-1.584547
	-1.574359
	-1.604925
	-1.610019
	-1.594736
	-1.604925
	-1.630396
	-1.650774
	-1.645680
	-1.660963
	-1.660963
	-1.686434
	-1.660963
	-1.640585
	-1.610019
	-1.574359
	-1.564170
	-1.589642
	-1.604925
	-1.635491
	-1.615113
	-1.610019
	-1.640585
	-1.660963
	-1.671151
	-1.691529
	-1.722095
	-1.742472
	-1.696623
	-1.655868
	-1.655868
	-1.630396
	-1.640585
	-1.620208
	-1.604925
	-1.635491
	-1.640585
	-1.589642
	-1.599830
	-1.615113
	-1.630396
	-1.625302
	-1.615113
	-1.635491
	-1.660963
	-1.645680
	-1.666057
	-1.660963
	-1.650774
	-1.655868
	-1.655868
	-1.666057
	-1.660963
	-1.640585
	-1.645680
	-1.671151
	-1.727189
	-1.773038
	-1.757755
	-1.701717
	-1.676246
	-1.681340
	-1.676246
	-1.676246
	-1.645680
	-1.620208
	-1.620208
	-1.620208
	-1.645680
	-1.640585
	-1.660963
	-1.660963
	-1.676246
	-1.722095
	-1.747567
	-1.778133
	-1.773038
	-1.762850
	-1.747567
	-1.732284
	-1.696623
	-1.650774
	-1.645680
	-1.635491
	-1.620208
	-1.630396
	-1.625302
	-1.630396
	-1.660963
	-1.666057
	-1.696623
	-1.686434
	-1.686434
	-1.706812
	-1.737378
	-1.742472
	-1.742472
	-1.706812
	-1.686434
	-1.645680
	-1.630396
	-1.625302
	-1.599830
	-1.594736
	-1.615113
	-1.645680
	-1.701717
	-1.711906
	-1.722095
	-1.696623
	-1.666057
	-1.676246
	-1.635491
	-1.645680
	-1.635491
	-1.615113
	-1.620208
	-1.599830
	-1.610019
	-1.610019
	-1.635491
	-1.610019
	-1.584547
	-1.604925
	-1.620208
	-1.635491
	-1.655868
	-1.660963
	-1.660963
	-1.660963
	-1.686434
	-1.655868
	-1.615113
	-1.553981
	-1.508132
	-1.538698
	-1.553981
	-1.569264
	-1.538698
	-1.513226
	-1.513226
	-1.553981
	-1.559075
	-1.559075
	-1.538698
	-1.528509
	-1.559075
	-1.533604
	-1.482660
	-1.421528
	-1.385867
	-1.396056
	-1.411339
	-1.431717
	-1.426622
	-1.452094
	-1.472471
	-1.452094
	-1.436811
	-1.457188
	-1.497943
	-1.508132
	-1.447000
	-1.390962
	-1.365490
	-1.360396
	-1.355301
	-1.365490
	-1.390962
	-1.365490
	-1.350207
	-1.329830
	-1.350207
	-1.380773
	-1.380773
	-1.401150
	-1.406245
	-1.426622
	-1.436811
	-1.421528
	-1.390962
	-1.390962
	-1.390962
	-1.355301
	-1.334924
	-1.350207
	-1.340018
	-1.345113
	-1.360396
	-1.396056
	-1.431717
	-1.487755
	-1.477566
	-1.467377
	-1.436811
	-1.431717
	-1.426622
	-1.401150
	-1.385867
	-1.396056
	-1.396056
	-1.411339
	-1.411339
	-1.390962
	-1.390962
	-1.385867
	-1.426622
	-1.487755
	-1.533604
	-1.538698
	-1.548887
	-1.538698
	-1.518321
	-1.548887
	-1.559075
	-1.533604
	-1.538698
	-1.548887
	-1.564170
	-1.559075
	-1.477566
	-1.436811
	-1.457188
	-1.513226
	-1.528509
	-1.559075
	-1.574359
	-1.564170
	-1.589642
	-1.599830
	-1.610019
	-1.569264
	-1.564170
	-1.538698
	-1.518321
	-1.497943
	-1.528509
	-1.553981
	-1.553981
	-1.584547
	-1.579453
	-1.589642
	-1.620208
	-1.610019
	-1.635491
	-1.630396
	-1.645680
	-1.599830
	-1.564170
	-1.574359
	-1.559075
	-1.559075
	-1.543792
	-1.528509
	-1.538698
	-1.564170
	-1.589642
	-1.630396
	-1.604925
	-1.630396
	-1.640585
	-1.655868
	-1.691529
	-1.676246
	-1.655868
	-1.620208
	-1.589642
	-1.589642
	-1.564170
	-1.543792
	-1.538698
	-1.548887
	-1.584547
	-1.615113
	-1.645680
	-1.671151
	-1.676246
	-1.676246
	-1.681340
	-1.706812
	-1.686434
	-1.650774
	-1.620208
	-1.584547
	-1.574359
	-1.584547
	-1.604925
	-1.610019
	-1.599830
	-1.599830
	-1.630396
	-1.650774
	-1.671151
	-1.686434
	-1.701717
	-1.681340
	-1.701717
	-1.640585
	-1.594736
	-1.579453
	-1.589642
	-1.594736
	-1.604925
	-1.620208
	-1.640585
	-1.635491
	-1.620208
	-1.594736
	-1.604925
	-1.640585
	-1.650774
	-1.671151
	-1.681340
	-1.686434
	-1.594736
	-1.518321
	-1.518321
	-1.492849
	-1.543792
	-1.584547
	-1.589642
	-1.610019
	-1.645680
	-1.696623
	-1.691529
	-1.691529
	-1.666057
	-1.625302
	-1.635491
	-1.655868
	-1.615113
	-1.574359
	-1.538698
	-1.559075
	-1.559075
	-1.579453
	-1.604925
	-1.635491
	-1.615113
	-1.635491
	-1.640585
	-1.666057
	-1.630396
	-1.620208
	-1.599830
	-1.599830
	-1.620208
	-1.610019
	-1.615113
	-1.599830
	-1.594736
	-1.579453
	-1.574359
	-1.564170
	-1.574359
	-1.599830
	-1.625302
	-1.630396
	-1.625302
	-1.655868
	-1.655868
	-1.630396
	-1.620208
	-1.610019
	-1.579453
	-1.579453
	-1.594736
	-1.574359
	-1.548887
	-1.548887
	-1.564170
	-1.589642
	-1.615113
	-1.640585
	-1.640585
	-1.620208
	-1.604925
	-1.610019
	-1.620208
	-1.630396
	-1.604925
	-1.594736
	-1.589642
	-1.579453
	-1.589642
	-1.620208
	-1.610019
	-1.584547
	-1.579453
	-1.594736
	-1.594736
	-1.594736
	-1.610019
	-1.594736
	-1.599830
	-1.620208
	-1.650774
	-1.625302
	-1.599830
	-1.594736
	-1.564170
	-1.548887
	-1.553981
	-1.579453
	-1.569264
	-1.579453
	-1.599830
	-1.620208
	-1.655868
	-1.681340
	-1.666057
	-1.655868
	-1.630396
	-1.610019
	-1.574359
	-1.574359
	-1.599830
	-1.604925
	-1.610019
	-1.564170
	-1.538698
	-1.528509
	-1.548887
	-1.579453
	-1.599830
	-1.610019
	-1.599830
	-1.615113
	-1.645680
	-1.660963
	-1.660963
	-1.625302
	-1.620208
	-1.635491
	-1.584547
	-1.574359
	-1.548887
	-1.553981
	-1.548887
	-1.574359
	-1.589642
	-1.615113
	-1.645680
	-1.604925
	-1.635491
	-1.640585
	-1.615113
	-1.594736
	-1.584547
	-1.579453
	-1.589642
	-1.579453
	-1.569264
	-1.569264
	-1.564170
	-1.564170
	-1.589642
	-1.599830
	-1.630396
	-1.640585
	-1.635491
	-1.645680
	-1.650774
	-1.671151
	-1.640585
	-1.625302
	-1.604925
	-1.599830
	-1.599830
	-1.594736
	-1.599830
	-1.548887
	-1.538698
	-1.553981
	-1.574359
	-1.594736
	-1.604925
	-1.620208
	-1.610019
	-1.625302
	-1.635491
	-1.615113
	-1.594736
	-1.574359
	-1.584547
	-1.579453
	-1.548887
	-1.538698
	-1.574359
	-1.620208
	-1.630396
	-1.615113
	-1.650774
	-1.660963
	-1.671151
	-1.660963
	-1.655868
	-1.599830
	-1.553981
	-1.599830
	-1.635491
	-1.650774
	-1.559075
	-1.553981
	-1.538698
	-1.559075
	-1.604925
	-1.620208
	-1.615113
	-1.594736
	-1.604925
	-1.635491
	-1.635491
	-1.650774
	-1.640585
	-1.604925
	-1.579453
	-1.574359
	-1.574359
	-1.579453
	-1.594736
	-1.564170
	-1.564170
	-1.579453
	-1.589642
	-1.615113
	-1.610019
	-1.635491
	-1.650774
	-1.640585
	-1.640585
	-1.625302
	-1.615113
	-1.604925
	-1.599830
	-1.610019
	-1.589642
	-1.569264
	-1.579453
	-1.615113
	-1.645680
	-1.635491
	-1.650774
	-1.655868
	-1.625302
	-1.604925
	-1.620208
	-1.620208
	-1.569264
	-1.538698
	-1.548887
	-1.548887
	-1.564170
	-1.538698
	-1.548887
	-1.584547
	-1.640585
	-1.660963
	-1.655868
	-1.640585
	-1.640585
	-1.655868
	-1.640585
	-1.635491
	-1.620208
	-1.610019
	-1.620208
	-1.594736
	-1.589642
	-1.584547
	-1.533604
	-1.538698
	-1.584547
	-1.610019
	-1.610019
	-1.625302
	-1.655868
	-1.610019
	-1.604925
	-1.620208
	-1.615113
	-1.584547
	-1.579453
	-1.559075
	-1.559075
	-1.569264
	-1.564170
	-1.559075
	-1.543792
	-1.594736
	-1.630396
	-1.650774
	-1.650774
	-1.640585
	-1.645680
	-1.655868
	-1.650774
	-1.635491
	-1.599830
	-1.579453
	-1.584547
	-1.574359
	-1.579453
	-1.579453
	-1.584547
	-1.599830
	-1.615113
	-1.610019
	-1.635491
	-1.635491
	-1.640585
	-1.676246
	-1.676246
	-1.691529
	-1.671151
	-1.640585
	-1.630396
	-1.615113
	-1.625302
	-1.579453
	-1.548887
	-1.559075
	-1.584547
	-1.615113
	-1.625302
	-1.625302
	-1.635491
	-1.666057
	-1.681340
	-1.717000
	-1.691529
	-1.655868
	-1.630396
	-1.620208
	-1.615113
	-1.615113
	-1.610019
	-1.615113
	-1.615113
	-1.655868
	-1.701717
	-1.706812
	-1.686434
	-1.671151
	-1.686434
	-1.706812
	-1.676246
	-1.650774
	-1.620208
	-1.604925
	-1.584547
	-1.564170
	-1.589642
	-1.620208
	-1.599830
	-1.615113
	-1.635491
	-1.640585
	-1.620208
	-1.640585
	-1.630396
	-1.645680
	-1.650774
	-1.630396
	-1.599830
	-1.564170
	-1.543792
	-1.548887
	-1.543792
	-1.533604
	-1.559075
	-1.543792
	-1.559075
	-1.574359
	-1.564170
	-1.574359
	-1.569264
	-1.559075
	-1.538698
	-1.518321
	-1.523415
	-1.492849
	-1.487755
	-1.482660
	-1.452094
	-1.441905
	-1.457188
	-1.472471
	-1.482660
	-1.533604
	-1.538698
	-1.543792
	-1.559075
	-1.574359
	-1.584547
	-1.548887
	-1.523415
	-1.508132
	-1.497943
	-1.518321
	-1.497943
	-1.513226
	-1.518321
	-1.533604
	-1.543792
	-1.518321
	-1.508132
	-1.538698
	-1.559075
	-1.594736
	-1.569264
	-1.574359
	-1.589642
	-1.610019
	-1.559075
	-1.533604
	-1.503038
	-1.482660
	-1.513226
	-1.574359
	-1.599830
	-1.615113
	-1.610019
	-1.610019
	-1.599830
	-1.594736
	-1.594736
	-1.610019
	-1.625302
	-1.660963
	-1.645680
	-1.589642
	-1.559075
	-1.564170
	-1.513226
	-1.518321
	-1.533604
	-1.548887
	-1.513226
	-1.543792
	-1.559075
	-1.589642
	-1.630396
	-1.655868
	-1.681340
	-1.645680
	-1.620208
	-1.599830
	-1.594736
	-1.564170
	-1.548887
	-1.548887
	-1.533604
	-1.538698
	-1.543792
	-1.559075
	-1.599830
	-1.645680
	-1.681340
	-1.711906
	-1.676246
	-1.620208
	-1.559075
	-1.574359
	-1.559075
	-1.569264
	-1.553981
	-1.559075
	-1.564170
	-1.584547
	-1.584547
	-1.594736
	-1.625302
	-1.676246
	-1.701717
	-1.742472
	-1.798510
	-1.844359
	-1.925869
	-1.997190
	-2.022662
	-2.053228
	-2.160209
	-2.241719
	-2.257002
	-2.323229
	-2.409833
	-2.486248
	-2.562663
	-2.613607
	-2.598324
	-2.557569
	-2.557569
	-2.542286
	-2.532097
	-2.496437
	-2.491342
	-2.450588
	-2.374172
	-2.318134
	-2.185681
	-2.017567
	-1.839265
	-1.686434
	-1.548887
	-1.416434
	-1.314546
	-1.171905
	-1.019074
	-0.805111
	-0.575865
	-0.417940
	-0.326242
	-0.290581
	-0.249826
	-0.260015
	-0.336430
	-0.433223
	-0.545299
	-0.657375
	-0.754167
	-0.830583
	-0.886621
	-0.988508
	-1.105678
	-1.171905
	-1.222848
	-1.314546
	-1.401150
	-1.457188
	-1.508132
	-1.523415
	-1.503038
	-1.467377
	-1.472471
	-1.497943
	-1.508132
	-1.538698
	-1.559075
	-1.559075
	-1.599830
	-1.635491
	-1.620208
	-1.594736
	-1.594736
	-1.589642
	-1.589642
	-1.584547
	-1.564170
	-1.579453
	-1.564170
	-1.559075
	-1.579453
	-1.559075
	-1.574359
	-1.599830
	-1.620208
	-1.620208
	-1.625302
	-1.635491
	-1.640585
	-1.655868
	-1.630396
	-1.635491
	-1.625302
	-1.615113
	-1.635491
	-1.640585
	-1.635491
	-1.620208
	-1.594736
	-1.599830
	-1.604925
	-1.610019
	-1.625302
	-1.650774
	-1.640585
	-1.635491
	-1.655868
	-1.655868
	-1.640585
	-1.630396
	-1.620208
	-1.620208
	-1.604925
	-1.604925
	-1.589642
	-1.584547
	-1.584547
	-1.610019
	-1.635491
	-1.666057
	-1.681340
	-1.640585
	-1.640585
	-1.645680
	-1.645680
	-1.645680
	-1.604925
	-1.599830
	-1.584547
	-1.615113
	-1.640585
	-1.635491
	-1.645680
	-1.630396
	-1.620208
	-1.620208
	-1.630396
	-1.650774
	-1.625302
	-1.599830
	-1.615113
	-1.635491
	-1.630396
	-1.650774
	-1.681340
	-1.660963
	-1.645680
	-1.640585
	-1.625302
	-1.604925
	-1.584547
	-1.594736
	-1.589642
	-1.620208
	-1.650774
	-1.655868
	-1.655868
	-1.676246
	-1.686434
	-1.660963
	-1.625302
	-1.620208
	-1.594736
	-1.604925
	-1.615113
	-1.615113
	-1.625302
	-1.640585
	-1.645680
	-1.625302
	-1.635491
	-1.655868
	-1.676246
	-1.676246
	-1.671151
	-1.645680
	-1.615113
	-1.599830
	-1.589642
	-1.604925
	-1.599830
	-1.594736
	-1.604925
	-1.594736
	-1.620208
	-1.620208
	-1.645680
	-1.645680
	-1.671151
	-1.686434
	-1.676246
	-1.691529
	-1.671151
	-1.681340
	-1.635491
	-1.635491
	-1.610019
	-1.610019
	-1.620208
	-1.594736
	-1.620208
	-1.666057
	-1.691529
	-1.681340
	-1.671151
	-1.660963
	-1.676246
	-1.701717
	-1.727189
	-1.696623
	-1.650774
	-1.630396
	-1.594736
	-1.599830
	-1.594736
	-1.599830
	-1.620208
	-1.640585
	-1.650774
	-1.671151
	-1.696623
	-1.691529
	-1.727189
	-1.676246
	-1.666057
	-1.671151
	-1.671151
	-1.676246
	-1.671151
	-1.671151
	-1.655868
	-1.660963
	-1.635491
	-1.645680
	-1.666057
	-1.666057
	-1.660963
	-1.660963
	-1.681340
	-1.686434
	-1.686434
	-1.696623
	-1.686434
	-1.676246
	-1.686434
	-1.681340
	-1.645680
	-1.660963
	-1.660963
	-1.645680
	-1.676246
	-1.691529
	-1.696623
	-1.711906
	-1.727189
	-1.732284
	-1.742472
	-1.732284
	-1.711906
	-1.676246
	-1.645680
	-1.630396
	-1.615113
	-1.640585
	-1.630396
	-1.655868
	-1.630396
	-1.645680
	-1.676246
	-1.717000
	-1.737378
	-1.691529
	-1.691529
	-1.701717
	-1.722095
	-1.711906
	-1.671151
	-1.640585
	-1.615113
	-1.589642
	-1.625302
	-1.635491
	-1.620208
	-1.610019
	-1.645680
	-1.645680
	-1.671151
	-1.655868
	-1.660963
	-1.650774
	-1.671151
	-1.676246
	-1.655868
	-1.635491
	-1.620208
	-1.599830
	-1.569264
	-1.564170
	-1.589642
	-1.589642
	-1.599830
	-1.615113
	-1.599830
	-1.574359
	-1.579453
	-1.594736
	-1.625302
	-1.676246
	-1.620208
	-1.574359
	-1.518321
	-1.508132
	-1.508132
	-1.518321
	-1.543792
	-1.548887
	-1.553981
	-1.559075
	-1.523415
	-1.492849
	-1.467377
	-1.457188
	-1.472471
	-1.467377
	-1.477566
	-1.492849
	-1.457188
	-1.436811
	-1.436811
	-1.452094
	-1.467377
	-1.441905
	-1.431717
	-1.396056
	-1.411339
	-1.426622
	-1.426622
	-1.416434
	-1.406245
	-1.390962
	-1.375679
	-1.375679
	-1.365490
	-1.350207
	-1.340018
	-1.355301
	-1.360396
	-1.365490
	-1.390962
	-1.401150
	-1.390962
	-1.406245
	-1.406245
	-1.396056
	-1.380773
	-1.350207
	-1.370584
	-1.396056
	-1.390962
	-1.380773
	-1.385867
	-1.380773
	-1.355301
	-1.350207
	-1.370584
	-1.411339
	-1.370584
	-1.380773
	-1.441905
	-1.441905
	-1.447000
	-1.436811
	-1.416434
	-1.477566
	-1.487755
	-1.467377
	-1.462283
	-1.441905
	-1.472471
	-1.441905
	-1.436811
	-1.421528
	-1.441905
	-1.472471
	-1.492849
	-1.503038
	-1.543792
	-1.564170
	-1.528509
	-1.508132
	-1.518321
	-1.528509
	-1.508132
	-1.523415
	-1.508132
	-1.548887
	-1.564170
	-1.559075
	-1.564170
	-1.579453
	-1.625302
	-1.655868
	-1.630396
	-1.635491
	-1.635491
	-1.589642
	-1.559075
	-1.553981
	-1.584547
	-1.579453
	-1.548887
	-1.513226
	-1.492849
	-1.492849
	-1.497943
	-1.497943
	-1.513226
	-1.564170
	-1.604925
	-1.615113
	-1.625302
	-1.650774
	-1.650774
	-1.650774
	-1.676246
	-1.696623
	-1.635491
	-1.574359
	-1.559075
	-1.574359
	-1.579453
	-1.574359
	-1.594736
	-1.604925
	-1.630396
	-1.645680
	-1.671151
	-1.676246
	-1.666057
	-1.681340
	-1.666057
	-1.711906
	-1.696623
	-1.650774
	-1.589642
	-1.564170
	-1.589642
	-1.599830
	-1.599830
	-1.620208
	-1.635491
	-1.645680
	-1.650774
	-1.671151
	-1.671151
	-1.671151
	-1.676246
	-1.671151
	-1.676246
	-1.655868
	-1.650774
	-1.620208
	-1.604925
	-1.625302
	-1.630396
	-1.660963
	-1.645680
	-1.640585
	-1.630396
	-1.630396
	-1.620208
	-1.640585
	-1.655868
	-1.660963
	-1.676246
	-1.681340
	-1.655868
	-1.630396
	-1.635491
	-1.630396
	-1.620208
	-1.615113
	-1.630396
	-1.671151
	-1.711906
	-1.696623
	-1.655868
	-1.676246
	-1.676246
	-1.681340
	-1.671151
	-1.706812
	-1.701717
	-1.625302
	-1.604925
	-1.599830
	-1.594736
	-1.579453
	-1.543792
	-1.518321
	-1.492849
	-1.548887
	-1.599830
	-1.635491
	-1.655868
	-1.655868
	-1.660963
	-1.660963
	-1.671151
	-1.640585
	-1.604925
	-1.599830
	-1.599830
	-1.604925
	-1.599830
	-1.620208
	-1.599830
	-1.640585
	-1.676246
	-1.681340
	-1.671151
	-1.691529
	-1.691529
	-1.696623
	-1.681340
	-1.666057
	-1.640585
	-1.615113
	-1.584547
	-1.574359
	-1.564170
	-1.574359
	-1.589642
	-1.579453
	-1.594736
	-1.615113
	-1.615113
	-1.635491
	-1.635491
	-1.640585
	-1.635491
	-1.650774
	-1.640585
	-1.635491
	-1.610019
	-1.620208
	-1.620208
	-1.589642
	-1.579453
	-1.599830
	-1.574359
	-1.564170
	-1.579453
	-1.610019
	-1.666057
	-1.686434
	-1.701717
	-1.655868
	-1.630396
	-1.589642
	-1.574359
	-1.564170
	-1.548887
	-1.559075
	-1.564170
	-1.594736
	-1.615113
	-1.635491
	-1.645680
	-1.620208
	-1.610019
	-1.620208
	-1.604925
	-1.604925
	-1.635491
	-1.640585
	-1.620208
	-1.620208
	-1.589642
	-1.569264
	-1.594736
	-1.589642
	-1.569264
	-1.543792
	-1.579453
	-1.599830
	-1.630396
	-1.640585
	-1.635491
	-1.655868
	-1.655868
	-1.655868
	-1.640585
	-1.620208
	-1.604925
	-1.594736
	-1.584547
	-1.594736
	-1.579453
	-1.569264
	-1.604925
	-1.640585
	-1.655868
	-1.655868
	-1.645680
	-1.620208
	-1.635491
	-1.625302
	-1.615113
	-1.589642
	-1.569264
	-1.564170
	-1.559075
	-1.584547
	-1.574359
	-1.604925
	-1.604925
	-1.610019
	-1.599830
	-1.599830
	-1.620208
	-1.630396
	-1.640585
	-1.650774
	-1.655868
	-1.676246
	-1.650774
	-1.635491
	-1.630396
	-1.589642
	-1.559075
	-1.538698
	-1.513226
	-1.497943
	-1.523415
	-1.594736
	-1.610019
	-1.635491
	-1.620208
	-1.635491
	-1.650774
	-1.630396
	-1.615113
	-1.589642
	-1.569264
	-1.569264
	-1.594736
	-1.620208
	-1.594736
	-1.569264
	-1.569264
	-1.589642
	-1.625302
	-1.635491
	-1.645680
	-1.645680
	-1.645680
	-1.640585
	-1.645680
	-1.635491
	-1.599830
	-1.574359
	-1.569264
	-1.528509
	-1.548887
	-1.594736
	-1.584547
	-1.594736
	-1.604925
	-1.579453
	-1.584547
	-1.630396
	-1.655868
	-1.650774
	-1.655868
	-1.610019
	-1.564170
	-1.574359
	-1.589642
	-1.594736
	-1.630396
	-1.640585
	-1.630396
	-1.620208
	-1.640585
	-1.635491
	-1.650774
	-1.650774
	-1.655868
	-1.645680
	-1.635491
	-1.640585
	-1.640585
	-1.635491
	-1.630396
	-1.584547
	-1.569264
	-1.569264
	-1.589642
	-1.574359
	-1.564170
	-1.579453
	-1.615113
	-1.645680
	-1.660963
	-1.660963
	-1.635491
	-1.579453
	-1.574359
	-1.564170
	-1.528509
	-1.528509
	-1.518321
	-1.543792
	-1.620208
	-1.625302
	-1.594736
	-1.579453
	-1.584547
	-1.574359
	-1.604925
	-1.625302
	-1.620208
	-1.635491
	-1.655868
	-1.640585
	-1.640585
	-1.604925
	-1.584547
	-1.538698
	-1.538698
	-1.538698
	-1.553981
	-1.538698
	-1.574359
	-1.615113
	-1.610019
	-1.620208
	-1.640585
	-1.666057
	-1.630396
	-1.599830
	-1.594736
	-1.579453
	-1.589642
	-1.589642
	-1.589642
	-1.574359
	-1.569264
	-1.574359
	-1.559075
	-1.589642
	-1.589642
	-1.599830
	-1.610019
	-1.610019
	-1.615113
	-1.630396
	-1.655868
	-1.645680
	-1.604925
	-1.574359
	-1.589642
	-1.574359
	-1.538698
	-1.523415
	-1.543792
	-1.594736
	-1.640585
	-1.671151
	-1.645680
	-1.630396
	-1.625302
	-1.640585
	-1.671151
	-1.666057
	-1.630396
	-1.574359
	-1.553981
	-1.543792
	-1.574359
	-1.574359
	-1.579453
	-1.533604
	-1.574359
	-1.599830
	-1.594736
	-1.599830
	-1.635491
	-1.640585
	-1.625302
	-1.630396
	-1.640585
	-1.620208
	-1.594736
	-1.599830
	-1.655868
	-1.635491
	-1.650774
	-1.701717
	-1.681340
	-1.645680
	-1.615113
	-1.625302
	-1.655868
	-1.640585
	-1.599830
	-1.589642
	-1.604925
	-1.620208
	-1.650774
	-1.660963
	-1.650774
	-1.681340
	-1.635491
	-1.615113
	-1.615113
	-1.640585
	-1.676246
	-1.671151
	-1.660963
	-1.655868
	-1.666057
	-1.681340
	-1.686434
	-1.676246
	-1.676246
	-1.660963
	-1.640585
	-1.620208
	-1.615113
	-1.589642
	-1.599830
	-1.589642
	-1.610019
	-1.620208
	-1.615113
	-1.625302
	-1.635491
	-1.681340
	-1.676246
	-1.655868
	-1.645680
	-1.635491
	-1.645680
	-1.640585
	-1.625302
	-1.610019
	-1.594736
	-1.594736
	-1.599830
	-1.620208
	-1.610019
	-1.594736
	-1.604925
	-1.594736
	-1.594736
	-1.599830
	-1.604925
	-1.574359
	-1.533604
	-1.508132
	-1.457188
	-1.477566
	-1.508132
	-1.467377
	-1.447000
	-1.482660
	-1.513226
	-1.508132
	-1.553981
	-1.533604
	-1.538698
	-1.559075
	-1.559075
	-1.553981
	-1.538698
	-1.543792
	-1.528509
	-1.513226
	-1.508132
	-1.528509
	-1.533604
	-1.503038
	-1.533604
	-1.523415
	-1.518321
	-1.508132
	-1.503038
	-1.543792
	-1.584547
	-1.599830
	-1.589642
	-1.564170
	-1.569264
	-1.579453
	-1.513226
	-1.492849
	-1.508132
	-1.503038
	-1.482660
	-1.528509
	-1.564170
	-1.589642
	-1.599830
	-1.589642
	-1.584547
	-1.589642
	-1.584547
	-1.553981
	-1.543792
	-1.553981
	-1.538698
	-1.559075
	-1.559075
	-1.584547
	-1.553981
	-1.574359
	-1.599830
	-1.589642
	-1.604925
	-1.625302
	-1.610019
	-1.615113
	-1.630396
	-1.599830
	-1.589642
	-1.584547
	-1.594736
	-1.584547
	-1.589642
	-1.584547
	-1.615113
	-1.599830
	-1.620208
	-1.686434
	-1.666057
	-1.635491
	-1.625302
	-1.655868
	-1.650774
	-1.635491
	-1.635491
	-1.589642
	-1.579453
	-1.559075
	-1.559075
	-1.518321
	-1.492849
	-1.533604
	-1.594736
	-1.625302
	-1.620208
	-1.635491
	-1.650774
	-1.691529
	-1.711906
	-1.732284
	-1.767944
	-1.818888
	-1.829076
	-1.839265
	-1.864737
	-1.920775
	-2.032850
	-2.180587
	-2.267191
	-2.313040
	-2.363984
	-2.435304
	-2.521909
	-2.633984
	-2.695117
	-2.695117
	-2.577946
	-2.481154
	-2.435304
	-2.425116
	-2.440399
	-2.409833
	-2.374172
	-2.302851
	-2.267191
	-2.200964
	-2.099077
	-1.966624
	-1.783227
	-1.660963
	-1.548887
	-1.421528
	-1.248320
	-1.049640
	-0.840771
	-0.596242
	-0.402657
	-0.270204
	-0.214166
	-0.188694
	-0.178505
	-0.249826
	-0.372091
	-0.514733
	-0.621714
	-0.723601
	-0.810205
	-0.881526
	-0.968130
	-1.049640
	-1.131150
	-1.171905
	-1.243225
	-1.324735
	-1.396056
	-1.436811
	-1.462283
	-1.472471
	-1.462283
	-1.467377
	-1.508132
	-1.548887
	-1.599830
	-1.579453
	-1.543792
	-1.548887
	-1.579453
	-1.610019
	-1.599830
	-1.594736
	-1.574359
	-1.564170
	-1.569264
	-1.548887
	-1.559075
	-1.533604
	-1.559075
	-1.589642
	-1.640585
	-1.666057
	-1.660963
	-1.635491
	-1.610019
	-1.625302
	-1.610019
	-1.574359
	-1.559075
	-1.533604
	-1.538698
	-1.548887
	-1.564170
	-1.625302
	-1.640585
	-1.676246
	-1.676246
	-1.635491
	-1.615113
	-1.615113
	-1.630396
	-1.635491
	-1.650774
	-1.635491
	-1.599830
	-1.589642
	-1.579453
	-1.579453
	-1.594736
	-1.599830
	-1.599830
	-1.635491
	-1.701717
	-1.686434
	-1.635491
	-1.625302
	-1.630396
	-1.676246
	-1.701717
	-1.676246
	-1.604925
	-1.559075
	-1.574359
	-1.574359
	-1.604925
	-1.630396
	-1.676246
	-1.676246
	-1.706812
	-1.691529
	-1.671151
	-1.696623
	-1.655868
	-1.660963
	-1.650774
	-1.671151
	-1.676246
	-1.635491
	-1.604925
	-1.574359
	-1.548887
	-1.569264
	-1.579453
	-1.599830
	-1.604925
	-1.645680
	-1.650774
	-1.671151
	-1.706812
	-1.701717
	-1.706812
	-1.717000
	-1.691529
	-1.625302
	-1.584547
	-1.589642
	-1.615113
	-1.630396
	-1.630396
	-1.660963
	-1.686434
	-1.660963
	-1.671151
	-1.666057
	-1.681340
	-1.671151
	-1.635491
	-1.666057
	-1.671151
	-1.660963
	-1.635491
	-1.615113
	-1.630396
	-1.645680
	-1.604925
	-1.543792
	-1.564170
	-1.559075
	-1.584547
	-1.615113
	-1.625302
	-1.655868
	-1.650774
	-1.650774
	-1.655868
	-1.671151
	-1.655868
	-1.615113
	-1.604925
	-1.635491
	-1.635491
	-1.635491
	-1.650774
	-1.676246
	-1.660963
	-1.660963
	-1.655868
	-1.620208
	-1.615113
	-1.610019
	-1.620208
	-1.615113
	-1.615113
	-1.604925
	-1.599830
	-1.594736
	-1.594736
	-1.579453
	-1.569264
	-1.589642
	-1.620208
	-1.625302
	-1.635491
	-1.640585
	-1.676246
	-1.660963
	-1.660963
	-1.701717
	-1.701717
	-1.701717
	-1.671151
	-1.655868
	-1.640585
	-1.615113
	-1.620208
	-1.625302
	-1.630396
	-1.620208
	-1.640585
	-1.650774
	-1.655868
	-1.671151
	-1.676246
	-1.681340
	-1.691529
	-1.696623
	-1.686434
	-1.660963
	-1.645680
	-1.640585
	-1.645680
	-1.650774
	-1.640585
	-1.650774
	-1.655868
	-1.671151
	-1.660963
	-1.676246
	-1.676246
	-1.650774
	-1.660963
	-1.676246
	-1.686434
	-1.701717
	-1.686434
	-1.655868
	-1.671151
	-1.666057
	-1.660963
	-1.671151
	-1.666057
	-1.671151
	-1.676246
	-1.681340
	-1.701717
	-1.717000
	-1.737378
	-1.722095
	-1.691529
	-1.671151
	-1.650774
	-1.630396
	-1.599830
	-1.594736
	-1.594736
	-1.589642
	-1.584547
	-1.579453
	-1.599830
	-1.645680
	-1.640585
	-1.660963
	-1.655868
	-1.676246
	-1.686434
	-1.727189
	-1.742472
	-1.701717
	-1.655868
	-1.630396
	-1.615113
	-1.599830
	-1.620208
	-1.615113
	-1.599830
	-1.599830
	-1.594736
	-1.620208
	-1.625302
	-1.620208
	-1.620208
	-1.620208
	-1.610019
	-1.589642
	-1.569264
	-1.574359
	-1.579453
	-1.569264
	-1.553981
	-1.538698
	-1.533604
	-1.543792
	-1.574359
	-1.564170
	-1.569264
	-1.559075
	-1.579453
	-1.574359
	-1.548887
	-1.533604
	-1.518321
	-1.487755
	-1.462283
	-1.447000
	-1.452094
	-1.431717
	-1.436811
	-1.426622
	-1.436811
	-1.447000
	-1.472471
	-1.492849
	-1.513226
	-1.508132
	-1.472471
	-1.467377
	-1.426622
	-1.350207
	-1.345113
	-1.365490
	-1.370584
	-1.396056
	-1.385867
	-1.375679
	-1.370584
	-1.375679
	-1.360396
	-1.375679
	-1.411339
	-1.431717
	-1.436811
	-1.406245
	-1.396056
	-1.355301
	-1.334924
	-1.345113
	-1.334924
	-1.299263
	-1.294169
	-1.324735
	-1.329830
	-1.390962
	-1.457188
	-1.457188
	-1.462283
	-1.462283
	-1.457188
	-1.447000
	-1.426622
	-1.457188
	-1.441905
	-1.406245
	-1.401150
	-1.390962
	-1.396056
	-1.411339
	-1.436811
	-1.441905
	-1.467377
	-1.492849
	-1.497943
	-1.513226
	-1.523415
	-1.513226
	-1.513226
	-1.533604
	-1.533604
	-1.528509
	-1.528509
	-1.467377
	-1.467377
	-1.467377
	-1.492849
	-1.477566
	-1.457188
	-1.508132
	-1.538698
	-1.564170
	-1.574359
	-1.559075
	-1.564170
	-1.579453
	-1.589642
	-1.579453
	-1.559075
	-1.533604
	-1.538698
	-1.543792
	-1.559075
	-1.564170
	-1.579453
	-1.620208
	-1.620208
	-1.620208
	-1.630396
	-1.630396
	-1.625302
	-1.635491
	-1.640585
	-1.620208
	-1.589642
	-1.584547
	-1.589642
	-1.589642
	-1.574359
	-1.553981
	-1.564170
	-1.533604
	-1.548887
	-1.594736
	-1.599830
	-1.594736
	-1.615113
	-1.640585
	-1.676246
	-1.681340
	-1.671151
	-1.630396
	-1.635491
	-1.615113
	-1.589642
	-1.599830
	-1.584547
	-1.569264
	-1.569264
	-1.559075
	-1.604925
	-1.589642
	-1.599830
	-1.599830
	-1.615113
	-1.615113
	-1.645680
	-1.635491
	-1.645680
	-1.630396
	-1.635491
	-1.615113
	-1.594736
	-1.594736
	-1.589642
	-1.599830
	-1.620208
	-1.655868
	-1.727189
	-1.717000
	-1.686434
	-1.645680
	-1.599830
	-1.615113
	-1.589642
	-1.574359
	-1.574359
	-1.574359
	-1.594736
	-1.599830
	-1.615113
	-1.610019
	-1.635491
	-1.640585
	-1.650774
	-1.676246
	-1.691529
	-1.706812
	-1.706812
	-1.696623
	-1.666057
	-1.655868
	-1.640585
	-1.655868
	-1.645680
	-1.615113
	-1.589642
	-1.579453
	-1.574359
	-1.584547
	-1.589642
	-1.625302
	-1.660963
	-1.691529
	-1.681340
	-1.676246
	-1.681340
	-1.671151
	-1.635491
	-1.604925
	-1.574359
	-1.569264
	-1.569264
	-1.574359
	-1.569264
	-1.604925
	-1.645680
	-1.655868
	-1.655868
	-1.635491
	-1.630396
	-1.635491
	-1.650774
	-1.655868
	-1.640585
	-1.625302
	-1.640585
	-1.630396
	-1.630396
	-1.589642
	-1.574359
	-1.559075
	-1.589642
	-1.594736
	-1.589642
	-1.630396
	-1.671151
	-1.655868
	-1.645680
	-1.645680
	-1.635491
	-1.635491
	-1.635491
	-1.630396
	-1.620208
	-1.610019
	-1.589642
	-1.589642
	-1.574359
	-1.615113
	-1.635491
	-1.671151
	-1.666057
	-1.635491
	-1.620208
	-1.604925
	-1.630396
	-1.640585
	-1.610019
	-1.599830
	-1.610019
	-1.599830
	-1.594736
	-1.589642
	-1.610019
	-1.604925
	-1.635491
	-1.650774
	-1.655868
	-1.666057
	-1.671151
	-1.640585
	-1.610019
	-1.610019
	-1.579453
	-1.569264
	-1.553981
	-1.548887
	-1.574359
	-1.574359
	-1.599830
	-1.620208
	-1.594736
	-1.589642
	-1.604925
	-1.615113
	-1.610019
	-1.604925
	-1.620208
	-1.635491
	-1.615113
	-1.604925
	-1.569264
	-1.548887
	-1.553981
	-1.594736
	-1.594736
	-1.599830
	-1.574359
	-1.589642
	-1.604925
	-1.604925
	-1.620208
	-1.640585
	-1.650774
	-1.635491
	-1.630396
	-1.599830
	-1.579453
	-1.594736
	-1.599830
	-1.604925
	-1.640585
	-1.594736
	-1.569264
	-1.538698
	-1.518321
	-1.569264
	-1.599830
	-1.610019
	-1.615113
	-1.655868
	-1.671151
	-1.655868
	-1.615113
	-1.584547
	-1.569264
	-1.559075
	-1.559075
	-1.553981
	-1.574359
	-1.599830
	-1.620208
	-1.635491
	-1.645680
	-1.655868
	-1.671151
	-1.671151
	-1.635491
	-1.620208
	-1.599830
	-1.564170
	-1.559075
	-1.569264
	-1.584547
	-1.604925
	-1.579453
	-1.579453
	-1.559075
	-1.584547
	-1.579453
	-1.610019
	-1.620208
	-1.610019
	-1.630396
	-1.635491
	-1.635491
	-1.615113
	-1.589642
	-1.584547
	-1.559075
	-1.559075
	-1.584547
	-1.574359
	-1.569264
	-1.569264
	-1.610019
	-1.640585
	-1.635491
	-1.645680
	-1.625302
	-1.620208
	-1.620208
	-1.625302
	-1.630396
	-1.610019
	-1.615113
	-1.574359
	-1.574359
	-1.579453
	-1.594736
	-1.610019
	-1.620208
	-1.640585
	-1.594736
	-1.584547
	-1.615113
	-1.635491
	-1.615113
	-1.645680
	-1.650774
	-1.640585
	-1.599830
	-1.559075
	-1.564170
	-1.548887
	-1.538698
	-1.559075
	-1.553981
	-1.569264
	-1.589642
	-1.594736
	-1.599830
	-1.615113
	-1.635491
	-1.660963
	-1.660963
	-1.630396
	-1.579453
	-1.559075
	-1.543792
	-1.548887
	-1.579453
	-1.630396
	-1.620208
	-1.625302
	-1.635491
	-1.635491
	-1.640585
	-1.615113
	-1.589642
	-1.604925
	-1.650774
	-1.615113
	-1.574359
	-1.553981
	-1.569264
	-1.589642
	-1.564170
	-1.574359
	-1.548887
	-1.548887
	-1.538698
	-1.559075
	-1.574359
	-1.579453
	-1.569264
	-1.569264
	-1.599830
	-1.615113
	-1.594736
	-1.615113
	-1.625302
	-1.610019
	-1.574359
	-1.543792
	-1.518321
	-1.548887
	-1.553981
	-1.559075
	-1.589642
	-1.599830
	-1.640585
	-1.701717
	-1.717000
	-1.655868
	-1.630396
	-1.620208
	-1.604925
	-1.569264
	-1.569264
	-1.564170
	-1.553981
	-1.559075
	-1.564170
	-1.559075
	-1.589642
	-1.610019
	-1.599830
	-1.589642
	-1.610019
	-1.645680
	-1.671151
	-1.696623
	-1.640585
	-1.599830
	-1.579453
	-1.548887
	-1.553981
	-1.553981
	-1.538698
	-1.543792
	-1.564170
	-1.589642
	-1.574359
	-1.564170
	-1.589642
	-1.610019
	-1.620208
	-1.635491
	-1.660963
	-1.655868
	-1.615113
	-1.610019
	-1.584547
	-1.574359
	-1.564170
	-1.579453
	-1.559075
	-1.589642
	-1.604925
	-1.615113
	-1.640585
	-1.610019
	-1.604925
	-1.604925
	-1.604925
	-1.594736
	-1.579453
	-1.579453
	-1.599830
	-1.604925
	-1.610019
	-1.594736
	-1.584547
	-1.579453
	-1.604925
	-1.635491
	-1.630396
	-1.635491
	-1.696623
	-1.717000
	-1.686434
	-1.666057
	-1.660963
	-1.604925
	-1.589642
	-1.584547
	-1.574359
	-1.559075
	-1.559075
	-1.559075
	-1.625302
	-1.650774
	-1.671151
	-1.691529
	-1.706812
	-1.722095
	-1.732284
	-1.737378
	-1.752661
	-1.722095
	-1.676246
	-1.625302
	-1.569264
	-1.599830
	-1.604925
	-1.604925
	-1.604925
	-1.635491
	-1.676246
	-1.691529
	-1.681340
	-1.645680
	-1.625302
	-1.630396
	-1.650774
	-1.640585
	-1.610019
	-1.625302
	-1.620208
	-1.610019
	-1.604925
	-1.589642
	-1.579453
	-1.579453
	-1.620208
	-1.635491
	-1.615113
	-1.620208
	-1.655868
	-1.666057
	-1.620208
	-1.589642
	-1.559075
	-1.528509
	-1.538698
	-1.523415
	-1.508132
	-1.487755
	-1.477566
	-1.447000
	-1.457188
	-1.497943
	-1.523415
	-1.538698
	-1.548887
	-1.523415
	-1.523415
	-1.513226
	-1.518321
	-1.518321
	-1.538698
	-1.513226
	-1.477566
	-1.492849
	-1.482660
	-1.523415
	-1.513226
	-1.543792
	-1.564170
	-1.579453
	-1.604925
	-1.599830
	-1.579453
	-1.564170
	-1.559075
	-1.584547
	-1.579453
	-1.620208
	-1.604925
	-1.574359
	-1.533604
	-1.503038
	-1.477566
	-1.457188
	-1.497943
	-1.508132
	-1.538698
	-1.579453
	-1.604925
	-1.620208
	-1.604925
	-1.630396
	-1.604925
	-1.564170
	-1.548887
	-1.538698
	-1.564170
	-1.579453
	-1.594736
	-1.584547
	-1.569264
	-1.599830
	-1.610019
	-1.610019
	-1.615113
	-1.569264
	-1.594736
	-1.569264
	-1.615113
	-1.620208
	-1.615113
	-1.599830
	-1.548887
	-1.569264
	-1.528509
	-1.538698
	-1.569264
	-1.610019
	-1.630396
	-1.620208
	-1.615113
	-1.610019
	-1.650774
	-1.630396
	-1.599830
	-1.604925
	-1.553981
	-1.548887
	-1.548887
	-1.559075
	-1.548887
	-1.513226
	-1.503038
	-1.492849
	-1.492849
	-1.492849
	-1.518321
	-1.574359
	-1.599830
	-1.635491
	-1.635491
	-1.655868
	-1.691529
	-1.706812
	-1.742472
	-1.793416
	-1.849454
	-1.915680
	-1.946246
	-1.961530
	-2.027756
	-2.114360
	-2.190775
	-2.292663
	-2.363984
	-2.450588
	-2.552475
	-2.639079
	-2.725683
	-2.735871
	-2.664550
	-2.588135
	-2.532097
	-2.496437
	-2.460776
	-2.435304
	-2.425116
	-2.374172
	-2.282474
	-2.144926
	-2.017567
	-1.864737
	-1.686434
	-1.553981
	-1.411339
	-1.263603
	-1.075112
	-0.896809
	-0.698130
	-0.499450
	-0.346619
	-0.203977
	-0.158128
	-0.147939
	-0.229449
	-0.316053
	-0.428129
	-0.550393
	-0.667563
	-0.800017
	-0.876432
	-0.968130
	-1.034357
	-1.131150
	-1.171905
	-1.227942
	-1.278886
	-1.314546
	-1.350207
	-1.370584
	-1.431717
	-1.497943
	-1.528509
	-1.543792
	-1.559075
	-1.574359
	-1.579453
	-1.594736
	-1.599830
	-1.569264
	-1.548887
	-1.548887
	-1.553981
	-1.523415
	-1.533604
	-1.548887
	-1.553981
	-1.564170
	-1.579453
	-1.625302
	-1.635491
	-1.640585
	-1.655868
	-1.681340
	-1.625302
	-1.630396
	-1.599830
	-1.610019
	-1.564170
	-1.523415
	-1.513226
	-1.523415
	-1.543792
	-1.559075
	-1.620208
	-1.681340
	-1.676246
	-1.676246
	-1.645680
	-1.635491
	-1.615113
	-1.604925
	-1.604925
	-1.599830
	-1.615113
	-1.615113
	-1.625302
	-1.630396
	-1.620208
	-1.620208
	-1.620208
	-1.635491
	-1.655868
	-1.671151
	-1.655868
	-1.630396
	-1.671151
	-1.722095
	-1.691529
	-1.655868
	-1.640585
	-1.604925
	-1.604925
	-1.599830
	-1.594736
	-1.630396
	-1.630396
	-1.655868
	-1.676246
	-1.655868
	-1.655868
	-1.666057
	-1.681340
	-1.671151
	-1.650774
	-1.635491
	-1.599830
	-1.589642
	-1.579453
	-1.594736
	-1.640585
	-1.635491
	-1.610019
	-1.610019
	-1.635491
	-1.645680
	-1.660963
	-1.666057
	-1.686434
	-1.671151
	-1.660963
	-1.696623
	-1.706812
	-1.635491
	-1.620208
	-1.615113
	-1.620208
	-1.625302
	-1.610019
	-1.584547
	-1.589642
	-1.604925
	-1.594736
	-1.620208
	-1.640585
	-1.671151
	-1.686434
	-1.671151
	-1.686434
	-1.666057
	-1.630396
	-1.630396
	-1.640585
	-1.666057
	-1.645680
	-1.630396
	-1.630396
	-1.625302
	-1.635491
	-1.615113
	-1.620208
	-1.625302
	-1.666057
	-1.681340
	-1.696623
	-1.660963
	-1.620208
	-1.620208
	-1.604925
	-1.574359
	-1.579453
	-1.584547
	-1.589642
	-1.615113
	-1.645680
	-1.660963
	-1.615113
	-1.620208
	-1.640585
	-1.650774
	-1.671151
	-1.691529
	-1.676246
	-1.640585
	-1.620208
	-1.620208
	-1.630396
	-1.640585
	-1.650774
	-1.640585
	-1.650774
	-1.681340
	-1.676246
	-1.696623
	-1.711906
	-1.711906
	-1.701717
	-1.681340
	-1.660963
	-1.640585
	-1.625302
	-1.676246
	-1.671151
	-1.645680
	-1.584547
	-1.564170
	-1.579453
	-1.599830
	-1.635491
	-1.645680
	-1.686434
	-1.676246
	-1.696623
	-1.696623
	-1.706812
	-1.686434
	-1.640585
	-1.620208
	-1.615113
	-1.640585
	-1.671151
	-1.645680
	-1.635491
	-1.630396
	-1.666057
	-1.676246
	-1.706812
	-1.717000
	-1.706812
	-1.701717
	-1.696623
	-1.696623
	-1.686434
	-1.681340
	-1.681340
	-1.655868
	-1.645680
	-1.666057
	-1.650774
	-1.686434
	-1.706812
	-1.747567
	-1.762850
	-1.737378
	-1.706812
	-1.706812
	-1.706812
	-1.717000
	-1.711906
	-1.671151
	-1.635491
	-1.645680
	-1.681340
	-1.717000
	-1.676246
	-1.660963
	-1.681340
	-1.681340
	-1.671151
	-1.650774
	-1.671151
	-1.696623
	-1.732284
	-1.737378
	-1.737378
	-1.706812
	-1.650774
	-1.630396
	-1.630396
	-1.625302
	-1.615113
	-1.584547
	-1.579453
	-1.584547
	-1.599830
	-1.610019
	-1.610019
	-1.589642
	-1.610019
	-1.604925
	-1.599830
	-1.579453
	-1.589642
	-1.579453
	-1.589642
	-1.564170
	-1.564170
	-1.589642
	-1.589642
	-1.579453
	-1.574359
	-1.574359
	-1.594736
	-1.604925
	-1.615113
	-1.584547
	-1.564170
	-1.543792
	-1.564170
	-1.543792
	-1.533604
	-1.513226
	-1.497943
	-1.492849
	-1.441905
	-1.472471
	-1.477566
	-1.436811
	-1.441905
	-1.477566
	-1.492849
	-1.503038
	-1.497943
	-1.508132
	-1.472471
	-1.431717
	-1.401150
	-1.406245
	-1.411339
	-1.411339
	-1.390962
	-1.375679
	-1.360396
	-1.350207
	-1.370584
	-1.396056
	-1.431717
	-1.472471
	-1.508132
	-1.492849
	-1.416434
	-1.385867
	-1.355301
	-1.350207
	-1.340018
	-1.340018
	-1.365490
	-1.350207
	-1.314546
	-1.334924
	-1.375679
	-1.370584
	-1.390962
	-1.431717
	-1.436811
	-1.436811
	-1.436811
	-1.416434
	-1.441905
	-1.416434
	-1.421528
	-1.426622
	-1.421528
	-1.411339
	-1.370584
	-1.396056
	-1.426622
	-1.452094
	-1.487755
	-1.503038
	-1.513226
	-1.533604
	-1.543792
	-1.523415
	-1.508132
	-1.477566
	-1.462283
	-1.441905
	-1.457188
	-1.497943
	-1.518321
	-1.513226
	-1.508132
	-1.467377
	-1.487755
	-1.538698
	-1.553981
	-1.564170
	-1.574359
	-1.559075
	-1.548887
	-1.574359
	-1.574359
	-1.538698
	-1.543792
	-1.564170
	-1.564170
	-1.559075
	-1.559075
	-1.559075
	-1.589642
	-1.620208
	-1.635491
	-1.645680
	-1.655868
	-1.635491
	-1.650774
	-1.671151
	-1.655868
	-1.599830
	-1.594736
	-1.569264
	-1.538698
	-1.564170
	-1.559075
	-1.523415
	-1.543792
	-1.610019
	-1.635491
	-1.620208
	-1.620208
	-1.635491
	-1.625302
	-1.615113
	-1.599830
	-1.594736
	-1.579453
	-1.594736
	-1.574359
	-1.564170
	-1.594736
	-1.604925
	-1.615113
	-1.610019
	-1.640585
	-1.640585
	-1.640585
	-1.645680
	-1.650774
	-1.635491
	-1.655868
	-1.711906
	-1.676246
	-1.640585
	-1.620208
	-1.620208
	-1.615113
	-1.620208
	-1.604925
	-1.584547
	-1.579453
	-1.625302
	-1.655868
	-1.650774
	-1.666057
	-1.691529
	-1.686434
	-1.676246
	-1.660963
	-1.640585
	-1.615113
	-1.604925
	-1.604925
	-1.620208
	-1.604925
	-1.589642
	-1.569264
	-1.594736
	-1.615113
	-1.610019
	-1.650774
	-1.681340
	-1.706812
	-1.717000
	-1.701717
	-1.711906
	-1.681340
	-1.650774
	-1.645680
	-1.604925
	-1.574359
	-1.559075
	-1.579453
	-1.589642
	-1.610019
	-1.635491
	-1.635491
	-1.650774
	-1.660963
	-1.676246
	-1.671151
	-1.650774
	-1.645680
	-1.625302
	-1.620208
	-1.599830
	-1.594736
	-1.620208
	-1.655868
	-1.681340
	-1.660963
	-1.620208
	-1.640585
	-1.625302
	-1.630396
	-1.635491
	-1.650774
	-1.650774
	-1.630396
	-1.620208
	-1.604925
	-1.594736
	-1.589642
	-1.584547
	-1.579453
	-1.574359
	-1.594736
	-1.620208
	-1.625302
	-1.640585
	-1.640585
	-1.645680
	-1.655868
	-1.640585
	-1.650774
	-1.645680
	-1.640585
	-1.620208
	-1.615113
	-1.579453
	-1.604925
	-1.599830
	-1.584547
	-1.589642
	-1.594736
	-1.599830
	-1.615113
	-1.640585
	-1.635491
	-1.620208
	-1.655868
	-1.645680
	-1.645680
	-1.599830
	-1.604925
	-1.574359
	-1.528509
	-1.513226
	-1.518321
	-1.508132
	-1.518321
	-1.569264
	-1.589642
	-1.625302
	-1.645680
	-1.681340
	-1.671151
	-1.666057
	-1.635491
	-1.640585
	-1.604925
	-1.584547
	-1.543792
	-1.543792
	-1.528509
	-1.543792
	-1.553981
	-1.574359
	-1.584547
	-1.604925
	-1.635491
	-1.650774
	-1.645680
	-1.676246
	-1.645680
	-1.640585
	-1.625302
	-1.635491
	-1.640585
	-1.584547
	-1.579453
	-1.559075
	-1.559075
	-1.548887
	-1.589642
	-1.640585
	-1.655868
	-1.660963
	-1.671151
	-1.655868
	-1.620208
	-1.610019
	-1.610019
	-1.579453
	-1.559075
	-1.559075
	-1.559075
	-1.559075
	-1.569264
	-1.579453
	-1.599830
	-1.620208
	-1.615113
	-1.640585
	-1.635491
	-1.625302
	-1.640585
	-1.630396
	-1.660963
	-1.635491
	-1.589642
	-1.589642
	-1.589642
	-1.579453
	-1.589642
	-1.574359
	-1.538698
	-1.533604
	-1.569264
	-1.594736
	-1.615113
	-1.630396
	-1.635491
	-1.650774
	-1.681340
	-1.676246
	-1.640585
	-1.599830
	-1.553981
	-1.518321
	-1.533604
	-1.553981
	-1.594736
	-1.615113
	-1.615113
	-1.599830
	-1.640585
	-1.686434
	-1.676246
	-1.635491
	-1.630396
	-1.594736
	-1.559075
	-1.548887
	-1.543792
	-1.553981
	-1.553981
	-1.564170
	-1.538698
	-1.538698
	-1.559075
	-1.579453
	-1.620208
	-1.599830
	-1.615113
	-1.589642
	-1.615113
	-1.630396
	-1.625302
	-1.615113
	-1.620208
	-1.615113
	-1.589642
	-1.584547
	-1.579453
	-1.604925
	-1.645680
	-1.630396
	-1.620208
	-1.620208
	-1.610019
	-1.620208
	-1.604925
	-1.615113
	-1.615113
	-1.620208
	-1.594736
	-1.569264
	-1.548887
	-1.538698
	-1.548887
	-1.553981
	-1.564170
	-1.559075
	-1.589642
	-1.594736
	-1.604925
	-1.594736
	-1.604925
	-1.625302
	-1.625302
	-1.650774
	-1.620208
	-1.615113
	-1.610019
	-1.569264
	-1.553981
	-1.569264
	-1.579453
	-1.599830
	-1.579453
	-1.589642
	-1.615113
	-1.635491
	-1.676246
	-1.676246
	-1.655868
	-1.645680
	-1.630396
	-1.604925
	-1.589642
	-1.599830
	-1.604925
	-1.589642
	-1.559075
	-1.559075
	-1.569264
	-1.604925
	-1.655868
	-1.671151
	-1.655868
	-1.630396
	-1.645680
	-1.635491
	-1.650774
	-1.635491
	-1.640585
	-1.645680
	-1.615113
	-1.579453
	-1.589642
	-1.589642
	-1.625302
	-1.610019
	-1.610019
	-1.604925
	-1.635491
	-1.635491
	-1.630396
	-1.635491
	-1.610019
	-1.625302
	-1.645680
	-1.640585
	-1.666057
	-1.650774
	-1.630396
	-1.620208
	-1.610019
	-1.594736
	-1.599830
	-1.610019
	-1.625302
	-1.589642
	-1.589642
	-1.599830
	-1.625302
	-1.620208
	-1.640585
	-1.630396
	-1.599830
	-1.604925
	-1.589642
	-1.584547
	-1.559075
	-1.553981
	-1.569264
	-1.574359
	-1.594736
	-1.589642
	-1.599830
	-1.594736
	-1.635491
	-1.655868
	-1.676246
	-1.696623
	-1.681340
	-1.630396
	-1.604925
	-1.604925
	-1.604925
	-1.599830
	-1.620208
	-1.630396
	-1.676246
	-1.691529
	-1.706812
	-1.722095
	-1.691529
	-1.686434
	-1.676246
	-1.640585
	-1.671151
	-1.660963
	-1.635491
	-1.620208
	-1.620208
	-1.604925
	-1.625302
	-1.640585
	-1.655868
	-1.671151
	-1.676246
	-1.717000
	-1.717000
	-1.691529
	-1.671151
	-1.686434
	-1.701717
	-1.671151
	-1.676246
	-1.676246
	-1.671151
	-1.681340
	-1.686434
	-1.666057
	-1.640585
	-1.635491
	-1.645680
	-1.635491
	-1.640585
	-1.666057
	-1.660963
	-1.650774
	-1.666057
	-1.671151
	-1.645680
	-1.630396
	-1.615113
	-1.589642
	-1.594736
	-1.564170
	-1.584547
	-1.604925
	-1.666057
	-1.671151
	-1.666057
	-1.671151
	-1.645680
	-1.671151
	-1.645680
	-1.635491
	-1.630396
	-1.610019
	-1.599830
	-1.569264
	-1.553981
	-1.508132
	-1.482660
	-1.467377
	-1.482660
	-1.503038
	-1.513226
	-1.523415
	-1.523415
	-1.523415
	-1.543792
	-1.553981
	-1.569264
	-1.538698
	-1.482660
	-1.487755
	-1.497943
	-1.508132
	-1.553981
	-1.579453
	-1.564170
	-1.548887
	-1.548887
	-1.574359
	-1.579453
	-1.564170
	-1.604925
	-1.630396
	-1.630396
	-1.620208
	-1.599830
	-1.584547
	-1.548887
	-1.513226
	-1.528509
	-1.508132
	-1.518321
	-1.518321
	-1.564170
	-1.599830
	-1.610019
	-1.594736
	-1.579453
	-1.574359
	-1.584547
	-1.553981
	-1.559075
	-1.559075
	-1.584547
	-1.548887
	-1.553981
	-1.543792
	-1.553981
	-1.599830
	-1.620208
	-1.599830
	-1.594736
	-1.615113
	-1.594736
	-1.569264
	-1.589642
	-1.599830
	-1.594736
	-1.604925
	-1.594736
	-1.599830
	-1.579453
	-1.559075
	-1.564170
	-1.579453
	-1.584547
	-1.569264
	-1.584547
	-1.604925
	-1.625302
	-1.599830
	-1.599830
	-1.599830
	-1.610019
	-1.599830
	-1.574359
	-1.579453
	-1.589642
	-1.604925
	-1.579453
	-1.553981
	-1.569264
	-1.564170
	-1.584547
	-1.599830
	-1.599830
	-1.604925
	-1.574359
	-1.589642
	-1.589642
	-1.630396
	-1.666057
	-1.660963
	-1.650774
	-1.655868
	-1.676246
	-1.711906
	-1.717000
	-1.717000
	-1.788321
	-1.849454
	-1.900397
	-1.920775
	-1.961530
	-2.073605
	-2.175492
	-2.267191
	-2.313040
	-2.338512
	-2.409833
	-2.501531
	-2.572852
	-2.623796
	-2.618701
	-2.567758
	-2.527003
	-2.516814
	-2.516814
	-2.527003
	-2.532097
	-2.496437
	-2.435304
	-2.379267
	-2.277379
	-2.150021
	-1.951341
	-1.717000
	-1.574359
	-1.467377
	-1.345113
	-1.161716
	-0.968130
	-0.703224
	-0.519827
	-0.392468
	-0.275298
	-0.275298
	-0.270204
	-0.244732
	-0.341525
	-0.433223
	-0.484167
	-0.535110
	-0.626809
	-0.723601
	-0.784734
	-0.886621
	-0.983413
	-1.059829
	-1.131150
	-1.248320
	-1.360396
	-1.416434
	-1.477566
	-1.492849
	-1.472471
	-1.472471
	-1.508132
	-1.543792
	-1.559075
	-1.564170
	-1.538698
	-1.523415
	-1.528509
	-1.548887
	-1.533604
	-1.543792
	-1.569264
	-1.564170
	-1.599830
	-1.630396
	-1.604925
	-1.599830
	-1.615113
	-1.604925
	-1.574359
	-1.559075
	-1.543792
	-1.553981
	-1.569264
	-1.569264
	-1.599830
	-1.604925
	-1.630396
	-1.645680
	-1.615113
	-1.604925
	-1.630396
	-1.625302
	-1.655868
	-1.676246
	-1.660963
	-1.640585
	-1.640585
	-1.645680
	-1.635491
	-1.640585
	-1.620208
	-1.599830
	-1.574359
	-1.589642
	-1.615113
	-1.620208
	-1.655868
	-1.645680
	-1.645680
	-1.640585
	-1.635491
	-1.635491
	-1.620208
	-1.594736
	-1.574359
	-1.579453
	-1.594736
	-1.615113
	-1.589642
	-1.589642
	-1.589642
	-1.594736
	-1.610019
	-1.640585
	-1.635491
	-1.630396
	-1.620208
	-1.630396
	-1.645680
	-1.660963
	-1.711906
	-1.737378
	-1.722095
	-1.671151
	-1.630396
	-1.599830
	-1.610019
	-1.630396
	-1.630396
	-1.645680
	-1.625302
	-1.620208
	-1.599830
	-1.615113
	-1.620208
	-1.615113
	-1.620208
	-1.610019
	-1.615113
	-1.615113
	-1.610019
	-1.630396
	-1.655868
	-1.666057
	-1.645680
	-1.681340
	-1.676246
	-1.655868
	-1.620208
	-1.625302
	-1.635491
	-1.620208
	-1.604925
	-1.604925
	-1.594736
	-1.610019
	-1.599830
	-1.604925
	-1.615113
	-1.630396
	-1.681340
	-1.717000
	-1.701717
	-1.671151
	-1.635491
	-1.640585
	-1.640585
	-1.635491
	-1.620208
	-1.599830
	-1.569264
	-1.569264
	-1.589642
	-1.589642
	-1.615113
	-1.640585
	-1.660963
	-1.676246
	-1.660963
	-1.681340
	-1.711906
	-1.717000
	-1.701717
	-1.717000
	-1.722095
	-1.696623
	-1.640585
	-1.599830
	-1.594736
	-1.599830
	-1.599830
	-1.610019
	-1.630396
	-1.691529
	-1.701717
	-1.686434
	-1.671151
	-1.676246
	-1.711906
	-1.727189
	-1.722095
	-1.686434
	-1.701717
	-1.711906
	-1.655868
	-1.640585
	-1.620208
	-1.594736
	-1.584547
	-1.589642
	-1.630396
	-1.666057
	-1.691529
	-1.696623
	-1.671151
	-1.676246
	-1.676246
	-1.691529
	-1.671151
	-1.660963
	-1.645680
	-1.610019
	-1.604925
	-1.594736
	-1.599830
	-1.615113
	-1.635491
	-1.671151
	-1.666057
	-1.681340
	-1.681340
	-1.691529
	-1.711906
	-1.701717
	-1.676246
	-1.655868
	-1.645680
	-1.625302
	-1.630396
	-1.630396
	-1.635491
	-1.625302
	-1.610019
	-1.630396
	-1.650774
	-1.660963
	-1.671151
	-1.711906
	-1.722095
	-1.717000
	-1.722095
	-1.717000
	-1.666057
	-1.691529
	-1.676246
	-1.645680
	-1.660963
	-1.650774
	-1.676246
	-1.676246
	-1.660963
	-1.676246
	-1.701717
	-1.691529
	-1.696623
	-1.696623
	-1.686434
	-1.676246
	-1.671151
	-1.655868
	-1.635491
	-1.620208
	-1.630396
	-1.620208
	-1.630396
	-1.650774
	-1.666057
	-1.660963
	-1.671151
	-1.676246
	-1.660963
	-1.640585
	-1.630396
	-1.640585
	-1.640585
	-1.604925
	-1.579453
	-1.579453
	-1.584547
	-1.610019
	-1.599830
	-1.610019
	-1.564170
	-1.559075
	-1.569264
	-1.559075
	-1.599830
	-1.615113
	-1.579453
	-1.553981
	-1.569264
	-1.559075
	-1.503038
	-1.472471
	-1.452094
	-1.472471
	-1.462283
	-1.431717
	-1.421528
	-1.462283
	-1.472471
	-1.513226
	-1.477566
	-1.472471
	-1.497943
	-1.528509
	-1.492849
	-1.452094
	-1.401150
	-1.411339
	-1.375679
	-1.380773
	-1.380773
	-1.340018
	-1.329830
	-1.334924
	-1.365490
	-1.416434
	-1.421528
	-1.447000
	-1.472471
	-1.457188
	-1.396056
	-1.380773
	-1.396056
	-1.390962
	-1.360396
	-1.329830
	-1.309452
	-1.334924
	-1.329830
	-1.350207
	-1.365490
	-1.396056
	-1.411339
	-1.416434
	-1.411339
	-1.401150
	-1.426622
	-1.436811
	-1.441905
	-1.436811
	-1.396056
	-1.401150
	-1.411339
	-1.390962
	-1.380773
	-1.375679
	-1.365490
	-1.401150
	-1.426622
	-1.452094
	-1.462283
	-1.482660
	-1.477566
	-1.482660
	-1.503038
	-1.523415
	-1.492849
	-1.462283
	-1.462283
	-1.492849
	-1.487755
	-1.457188
	-1.447000
	-1.436811
	-1.436811
	-1.426622
	-1.411339
	-1.441905
	-1.497943
	-1.559075
	-1.569264
	-1.559075
	-1.564170
	-1.548887
	-1.553981
	-1.564170
	-1.559075
	-1.564170
	-1.564170
	-1.569264
	-1.564170
	-1.579453
	-1.604925
	-1.610019
	-1.599830
	-1.599830
	-1.589642
	-1.559075
	-1.564170
	-1.594736
	-1.574359
	-1.559075
	-1.574359
	-1.569264
	-1.543792
	-1.523415
	-1.553981
	-1.559075
	-1.584547
	-1.604925
	-1.630396
	-1.671151
	-1.671151
	-1.686434
	-1.660963
	-1.660963
	-1.655868
	-1.615113
	-1.604925
	-1.569264
	-1.553981
	-1.553981
	-1.579453
	-1.610019
	-1.635491
	-1.630396
	-1.625302
	-1.640585
	-1.660963
	-1.671151
	-1.676246
	-1.671151
	-1.671151
	-1.650774
	-1.625302
	-1.599830
	-1.594736
	-1.599830
	-1.604925
	-1.599830
	-1.594736
	-1.640585
	-1.691529
	-1.701717
	-1.691529
	-1.691529
	-1.722095
	-1.717000
	-1.666057
	-1.625302
	-1.604925
	-1.599830
	-1.604925
	-1.615113
	-1.630396
	-1.615113
	-1.599830
	-1.615113
	-1.625302
	-1.640585
	-1.650774
	-1.650774
	-1.655868
	-1.645680
	-1.640585
	-1.645680
	-1.666057
	-1.655868
	-1.635491
	-1.640585
	-1.655868
	-1.635491
	-1.620208
	-1.620208
	-1.625302
	-1.604925
	-1.615113
	-1.650774
	-1.671151
	-1.681340
	-1.686434
	-1.676246
	-1.681340
	-1.630396
	-1.599830
	-1.589642
	-1.574359
	-1.599830
	-1.625302
	-1.640585
	-1.640585
	-1.635491
	-1.599830
	-1.604925
	-1.640585
	-1.666057
	-1.681340
	-1.640585
	-1.625302
	-1.625302
	-1.594736
	-1.599830
	-1.584547
	-1.559075
	-1.538698
	-1.548887
	-1.564170
	-1.594736
	-1.604925
	-1.599830
	-1.620208
	-1.625302
	-1.625302
	-1.630396
	-1.635491
	-1.655868
	-1.630396
	-1.610019
	-1.599830
	-1.589642
	-1.615113
	-1.610019
	-1.579453
	-1.579453
	-1.610019
	-1.615113
	-1.630396
	-1.645680
	-1.655868
	-1.676246
	-1.691529
	-1.676246
	-1.645680
	-1.599830
	-1.584547
	-1.594736
	-1.564170
	-1.548887
	-1.553981
	-1.559075
	-1.564170
	-1.671151
	-1.676246
	-1.666057
	-1.660963
	-1.671151
	-1.640585
	-1.630396
	-1.635491
	-1.620208
	-1.589642
	-1.564170
	-1.579453
	-1.533604
	-1.523415
	-1.553981
	-1.533604
	-1.538698
	-1.589642
	-1.625302
	-1.610019
	-1.620208
	-1.630396
	-1.645680
	-1.701717
	-1.681340
	-1.640585
	-1.615113
	-1.574359
	-1.513226
	-1.523415
	-1.559075
	-1.584547
	-1.553981
	-1.559075
	-1.584547
	-1.620208
	-1.640585
	-1.645680
	-1.599830
	-1.610019
	-1.630396
	-1.630396
	-1.620208
	-1.589642
	-1.569264
	-1.543792
	-1.533604
	-1.523415
	-1.559075
	-1.599830
	-1.615113
	-1.650774
	-1.620208
	-1.615113
	-1.604925
	-1.620208
	-1.635491
	-1.650774
	-1.655868
	-1.610019
	-1.569264
	-1.564170
	-1.564170
	-1.559075
	-1.533604
	-1.518321
	-1.538698
	-1.553981
	-1.584547
	-1.635491
	-1.650774
	-1.640585
	-1.666057
	-1.655868
	-1.640585
	-1.615113
	-1.604925
	-1.574359
	-1.559075
	-1.543792
	-1.548887
	-1.569264
	-1.579453
	-1.599830
	-1.610019
	-1.594736
	-1.579453
	-1.569264
	-1.569264
	-1.569264
	-1.589642
	-1.604925
	-1.569264
	-1.548887
	-1.543792
	-1.533604
	-1.564170
	-1.574359
	-1.615113
	-1.625302
	-1.660963
	-1.676246
	-1.655868
	-1.635491
	-1.620208
	-1.630396
	-1.640585
	-1.630396
	-1.645680
	-1.615113
	-1.599830
	-1.574359
	-1.548887
	-1.538698
	-1.538698
	-1.533604
	-1.538698
	-1.589642
	-1.610019
	-1.604925
	-1.599830
	-1.604925
	-1.620208
	-1.615113
	-1.620208
	-1.559075
	-1.538698
	-1.533604
	-1.559075
	-1.579453
	-1.564170
	-1.589642
	-1.594736
	-1.594736
	-1.604925
	-1.615113
	-1.620208
	-1.666057
	-1.640585
	-1.630396
	-1.635491
	-1.645680
	-1.635491
	-1.620208
	-1.584547
	-1.528509
	-1.523415
	-1.518321
	-1.528509
	-1.543792
	-1.569264
	-1.574359
	-1.553981
	-1.574359
	-1.584547
	-1.599830
	-1.635491
	-1.645680
	-1.625302
	-1.584547
	-1.579453
	-1.553981
	-1.538698
	-1.538698
	-1.559075
	-1.584547
	-1.574359
	-1.599830
	-1.630396
	-1.630396
	-1.640585
	-1.625302
	-1.589642
	-1.559075
	-1.594736
	-1.584547
	-1.559075
	-1.548887
	-1.574359
	-1.579453
	-1.548887
	-1.564170
	-1.564170
	-1.569264
	-1.594736
	-1.604925
	-1.610019
	-1.625302
	-1.610019
	-1.630396
	-1.630396
	-1.635491
	-1.630396
	-1.625302
	-1.610019
	-1.584547
	-1.523415
	-1.513226
	-1.528509
	-1.543792
	-1.574359
	-1.610019
	-1.610019
	-1.610019
	-1.604925
	-1.610019
	-1.620208
	-1.635491
	-1.630396
	-1.610019
	-1.594736
	-1.574359
	-1.559075
	-1.574359
	-1.569264
	-1.589642
	-1.620208
	-1.660963
	-1.640585
	-1.635491
	-1.635491
	-1.620208
	-1.620208
	-1.599830
	-1.615113
	-1.635491
	-1.635491
	-1.620208
	-1.604925
	-1.615113
	-1.599830
	-1.599830
	-1.604925
	-1.630396
	-1.640585
	-1.615113
	-1.610019
	-1.630396
	-1.645680
	-1.676246
	-1.671151
	-1.640585
	-1.604925
	-1.599830
	-1.574359
	-1.543792
	-1.553981
	-1.579453
	-1.589642
	-1.589642
	-1.610019
	-1.666057
	-1.711906
	-1.717000
	-1.737378
	-1.711906
	-1.706812
	-1.681340
	-1.645680
	-1.604925
	-1.594736
	-1.630396
	-1.645680
	-1.640585
	-1.630396
	-1.620208
	-1.620208
	-1.660963
	-1.696623
	-1.722095
	-1.701717
	-1.671151
	-1.676246
	-1.650774
	-1.666057
	-1.671151
	-1.625302
	-1.584547
	-1.594736
	-1.599830
	-1.579453
	-1.564170
	-1.543792
	-1.564170
	-1.604925
	-1.630396
	-1.625302
	-1.650774
	-1.660963
	-1.671151
	-1.701717
	-1.696623
	-1.610019
	-1.599830
	-1.615113
	-1.589642
	-1.594736
	-1.594736
	-1.584547
	-1.564170
	-1.620208
	-1.650774
	-1.655868
	-1.630396
	-1.599830
	-1.599830
	-1.599830
	-1.584547
	-1.548887
	-1.518321
	-1.513226
	-1.472471
	-1.457188
	-1.477566
	-1.467377
	-1.457188
	-1.441905
	-1.467377
	-1.523415
	-1.553981
	-1.543792
	-1.528509
	-1.523415
	-1.528509
	-1.538698
	-1.497943
	-1.492849
	-1.487755
	-1.508132
	-1.523415
	-1.497943
	-1.487755
	-1.492849
	-1.528509
	-1.579453
	-1.589642
	-1.594736
	-1.610019
	-1.604925
	-1.610019
	-1.589642
	-1.574359
	-1.538698
	-1.518321
	-1.503038
	-1.513226
	-1.538698
	-1.533604
	-1.559075
	-1.594736
	-1.625302
	-1.635491
	-1.615113
	-1.604925
	-1.574359
	-1.559075
	-1.548887
	-1.533604
	-1.548887
	-1.574359
	-1.599830
	-1.599830
	-1.564170
	-1.543792
	-1.543792
	-1.548887
	-1.553981
	-1.553981
	-1.574359
	-1.599830
	-1.635491
	-1.630396
	-1.630396
	-1.604925
	-1.645680
	-1.666057
	-1.610019
	-1.579453
	-1.559075
	-1.559075
	-1.553981
	-1.559075
	-1.543792
	-1.574359
	-1.620208
	-1.635491
	-1.604925
	-1.610019
	-1.655868
	-1.676246
	-1.660963
	-1.645680
	-1.579453
	-1.518321
	-1.497943
	-1.497943
	-1.497943
	-1.492849
	-1.518321
	-1.553981
	-1.610019
	-1.625302
	-1.650774
	-1.671151
	-1.701717
	-1.737378
	-1.742472
	-1.818888
	-1.895303
	-1.920775
	-1.936058
	-1.987001
	-2.058322
	-2.119454
	-2.190775
	-2.297757
	-2.363984
	-2.445493
	-2.542286
	-2.633984
	-2.654362
	-2.659456
	-2.623796
	-2.532097
	-2.460776
	-2.399644
	-2.384361
	-2.404738
	-2.399644
	-2.292663
	-2.200964
	-2.109266
	-1.987001
	-1.839265
	-1.671151
	-1.538698
	-1.390962
	-1.278886
	-1.115867
	-0.957942
	-0.774545
	-0.642092
	-0.494355
	-0.351713
	-0.249826
	-0.244732
	-0.300770
	-0.361902
	-0.458695
	-0.570771
	-0.682846
	-0.794922
	-0.901904
	-1.024168
	-1.131150
	-1.212659
	-1.243225
	-1.334924
	-1.406245
	-1.401150
	-1.390962
	-1.416434
	-1.431717
	-1.452094
	-1.482660
	-1.503038
	-1.513226
	-1.543792
	-1.548887
	-1.564170
	-1.594736
	-1.553981
	-1.538698
	-1.533604
	-1.548887
	-1.564170
	-1.533604
	-1.528509
	-1.538698
	-1.543792
	-1.574359
	-1.569264
	-1.528509
	-1.548887
	-1.604925
	-1.630396
	-1.635491
	-1.655868
	-1.660963
	-1.676246
	-1.660963
	-1.640585
	-1.620208
	-1.620208
	-1.604925
	-1.589642
	-1.625302
	-1.610019
	-1.579453
	-1.589642
	-1.615113
	-1.645680
	-1.655868
	-1.671151
	-1.645680
	-1.640585
	-1.655868
	-1.671151
	-1.650774
	-1.604925
	-1.574359
	-1.574359
	-1.604925
	-1.594736
	-1.574359
	-1.564170
	-1.584547
	-1.620208
	-1.635491
	-1.630396
	-1.620208
	-1.635491
	-1.666057
	-1.671151
	-1.671151
	-1.635491
	-1.579453
	-1.543792
	-1.533604
	-1.564170
	-1.574359
	-1.620208
	-1.660963
	-1.650774
	-1.640585
	-1.655868
	-1.635491
	-1.635491
	-1.645680
	-1.660963
	-1.681340
	-1.681340
	-1.645680
	-1.630396
	-1.620208
	-1.615113
	-1.589642
	-1.594736
	-1.620208
	-1.584547
	-1.569264
	-1.599830
	-1.599830
	-1.635491
	-1.671151
	-1.666057
	-1.640585
	-1.620208
	-1.599830
	-1.589642
	-1.610019
	-1.604925
	-1.620208
	-1.635491
	-1.645680
	-1.599830
	-1.548887
	-1.553981
	-1.584547
	-1.635491
	-1.711906
	-1.783227
	-1.829076
	-1.788321
	-1.717000
	-1.660963
	-1.604925
	-1.559075
	-1.559075
	-1.610019
	-1.635491
	-1.599830
	-1.564170
	-1.574359
	-1.610019
	-1.630396
	-1.615113
	-1.599830
	-1.584547
	-1.574359
	-1.610019
	-1.610019
	-1.599830
	-1.610019
	-1.604925
	-1.564170
	-1.574359
	-1.564170
	-1.589642
	-1.604925
	-1.640585
	-1.655868
	-1.681340
	-1.711906
	-1.737378
	-1.722095
	-1.681340
	-1.691529
	-1.681340
	-1.620208
	-1.610019
	-1.579453
	-1.584547
	-1.599830
	-1.599830
	-1.615113
	-1.630396
	-1.655868
	-1.660963
	-1.671151
	-1.676246
	-1.691529
	-1.701717
	-1.681340
	-1.686434
	-1.701717
	-1.676246
	-1.630396
	-1.589642
	-1.610019
	-1.625302
	-1.660963
	-1.696623
	-1.711906
	-1.732284
	-1.737378
	-1.762850
	-1.737378
	-1.737378
	-1.727189
	-1.711906
	-1.727189
	-1.717000
	-1.706812
	-1.722095
	-1.691529
	-1.671151
	-1.635491
	-1.620208
	-1.625302
	-1.650774
	-1.671151
	-1.686434
	-1.727189
	-1.757755
	-1.757755
	-1.727189
	-1.747567
	-1.727189
	-1.691529
	-1.681340
	-1.645680
	-1.615113
	-1.604925
	-1.604925
	-1.640585
	-1.630396
	-1.655868
	-1.691529
	-1.706812
	-1.711906
	-1.711906
	-1.727189
	-1.701717
	-1.701717
	-1.686434
	-1.660963
	-1.660963
	-1.625302
	-1.615113
	-1.635491
	-1.635491
	-1.610019
	-1.635491
	-1.640585
	-1.655868
	-1.671151
	-1.691529
	-1.691529
	-1.701717
	-1.671151
	-1.701717
	-1.691529
	-1.666057
	-1.630396
	-1.615113
	-1.630396
	-1.640585
	-1.630396
	-1.579453
	-1.589642
	-1.620208
	-1.630396
	-1.625302
	-1.640585
	-1.620208
	-1.594736
	-1.594736
	-1.584547
	-1.553981
	-1.559075
	-1.543792
	-1.523415
	-1.487755
	-1.457188
	-1.477566
	-1.487755
	-1.518321
	-1.564170
	-1.599830
	-1.620208
	-1.599830
	-1.574359
	-1.559075
	-1.533604
	-1.482660
	-1.452094
	-1.426622
	-1.426622
	-1.436811
	-1.441905
	-1.436811
	-1.436811
	-1.431717
	-1.472471
	-1.462283
	-1.441905
	-1.436811
	-1.447000
	-1.457188
	-1.441905
	-1.421528
	-1.390962
	-1.390962
	-1.396056
	-1.360396
	-1.375679
	-1.390962
	-1.370584
	-1.345113
	-1.375679
	-1.411339
	-1.431717
	-1.416434
	-1.406245
	-1.416434
	-1.385867
	-1.396056
	-1.426622
	-1.401150
	-1.390962
	-1.401150
	-1.390962
	-1.396056
	-1.396056
	-1.406245
	-1.396056
	-1.406245
	-1.406245
	-1.426622
	-1.467377
	-1.508132
	-1.538698
	-1.503038
	-1.462283
	-1.436811
	-1.401150
	-1.396056
	-1.406245
	-1.396056
	-1.401150
	-1.421528
	-1.457188
	-1.462283
	-1.472471
	-1.492849
	-1.487755
	-1.477566
	-1.477566
	-1.513226
	-1.533604
	-1.533604
	-1.533604
	-1.559075
	-1.533604
	-1.477566
	-1.487755
	-1.457188
	-1.492849
	-1.523415
	-1.569264
	-1.599830
