 -1.579453	
 -1.578953	
 -1.537698	
 -1.481160	
 -1.450094	
 -1.515821	
 -1.556075	
 -1.596330	
 -1.651868	
 -1.697217	
 -1.686529	
 -1.655463	
 -1.649868	
 -1.639180	
 -1.638680	
 -1.668746	
 -1.770133	
 -1.815482	
 -1.865925	
 -1.901086	
 -1.936246	
 -1.981596	
 -2.088077	
 -2.179275	
 -2.260285	
 -2.295446	
 -2.371361	
 -2.467654	
 -2.543569	
 -2.583825	
 -2.573136	
 -2.491126	
 -2.404022	
 -2.337296	
 -2.321513	
 -2.305730	
 -2.289947	
 -2.248692	
 -2.207437	
 -2.206937	
 -2.124927	
 -2.027635	
 -1.879399	
 -1.695502	
 -1.577832	
 -1.414313	
 -1.281360	
 -1.087274	
 -0.893189	
 -0.704198	
 -0.525396	
 -0.377160	
 -0.264584	
 -0.243707	
 -0.258490	
 -0.324216	
 -0.430699	
 -0.562652	
 -0.653850	
 -0.729766	
 -0.831153	
 -0.922352	
 -0.998268	
 -1.048711	
 -1.073683	
 -1.159788	
 -1.250986	
 -1.337090	
 -1.392629	
 -1.412507	
 -1.437478	
 -1.452262	
 -1.477234	
 -1.512395	
 -1.516989	
 -1.536868	
 -1.531273	
 -1.546057	
 -1.530274	
 -1.534869	
 -1.534370	
 -1.523681	
 -1.507898	
 -1.476833	
 -1.496710	
 -1.526777	
 -1.521183	
 -1.510495	
 -1.525278	
 -1.550251	
 -1.554845	
 -1.564535	
 -1.569129	
 -1.578819	
 -1.588508	
 -1.623669	
 -1.618075	
 -1.556444	
 -1.525379	
 -1.514690	
 -1.509096	
 -1.528974	
 -1.528475	
 -1.573825	
 -1.583514	
 -1.593204	
 -1.607988	
 -1.622772	
 -1.637555	
 -1.637056	
 -1.631462	
 -1.615679	
 -1.599897	
 -1.599398	
 -1.578522	
 -1.567834	
 -1.536769	
 -1.546458	
 -1.561242	
 -1.632064	
 -1.667225	
 -1.585217	
 -1.554151	
 -1.558747	
 -1.563342	
 -1.588315	
 -1.592910	
 -1.607694	
 -1.637761	
 -1.606696	
 -1.575631	
 -1.595510	
 -1.595011	
 -1.574134	
 -1.558352	
 -1.532381	
 -1.486033	
 -1.480441	
 -1.520697	
 -1.560952	
 -1.560453	
 -1.580332	
 -1.584928	
 -1.569146	
 -1.563553	
 -1.547771	
 -1.557461	
 -1.567151	
 -1.551370	
 -1.530494	
 -1.529995	
 -1.539685	
 -1.523903	
 -1.523405	
 -1.548378	
 -1.578446	
 -1.567759	
 -1.597827	
 -1.612611	
 -1.596830	
 -1.555576	
 -1.549983	
 -1.585146	
 -1.574458	
 -1.538300	
 -1.522519	
 -1.501642	
 -1.516427	
 -1.521024	
 -1.535809	
 -1.509838	
 -1.539906	
 -1.544502	
 -1.549099	
 -1.538412	
 -1.548103	
 -1.573077	
 -1.582766	
 -1.577174	
 -1.602148	
 -1.591461	
 -1.570586	
 -1.559900	
 -1.533930	
 -1.487583	
 -1.466707	
 -1.481493	
 -1.511561	
 -1.526346	
 -1.551321	
 -1.576294	
 -1.575796	
 -1.554921	
 -1.534046	
 -1.518265	
 -1.543239	
 -1.568214	
 -1.537150	
 -1.531558	
 -1.536155	
 -1.479620	
 -1.489311	
 -1.488814	
 -1.473033	
 -1.482724	
 -1.548453	
 -1.563239	
 -1.547459	
 -1.521489	
 -1.536275	
 -1.581627	
 -1.581130	
 -1.575538	
 -1.564852	
 -1.523600	
 -1.507820	
 -1.492040	
 -1.491543	
 -1.501235	
 -1.485455	
 -1.510430	
 -1.504838	
 -1.514530	
 -1.549694	
 -1.595046	
 -1.604737	
 -1.588957	
 -1.583367	
 -1.577776	
 -1.607845	
 -1.586970	
 -1.566097	
 -1.560506	
 -1.554914	
 -1.554418	
 -1.508072	
 -1.466821	
 -1.481607	
 -1.501489	
 -1.506086	
 -1.536156	
 -1.556037	
 -1.555541	
 -1.549950	
 -1.564736	
 -1.574429	
 -1.538273	
 -1.507210	
 -1.521998	
 -1.536784	
 -1.515910	
 -1.510320	
 -1.530201	
 -1.555177	
 -1.559775	
 -1.574562	
 -1.579161	
 -1.593948	
 -1.588357	
 -1.587862	
 -1.602650	
 -1.622531	
 -1.616941	
 -1.621540	
 -1.605761	
 -1.554321	
 -1.502883	
 -1.522764	
 -1.527364	
 -1.491207	
 -1.511090	
 -1.520782	
 -1.545759	
 -1.580923	
 -1.590617	
 -1.590122	
 -1.559061	
 -1.558565	
 -1.568259	
 -1.572858	
 -1.546891	
 -1.515830	
 -1.510241	
 -1.479180	
 -1.478685	
 -1.483284	
 -1.498072	
 -1.507766	
 -1.548026	
 -1.593380	
 -1.582697	
 -1.536353	
 -1.500198	
 -1.504797	
 -1.509397	
 -1.529280	
 -1.538974	
 -1.482441	
 -1.451381	
 -1.425415	
 -1.419826	
 -1.449898	
 -1.439215	
 -1.423438	
 -1.407660	
 -1.432637	
 -1.457615	
 -1.426555	
 -1.446438	
 -1.476510	
 -1.506583	
 -1.541749	
 -1.576916	
 -1.540761	
 -1.458757	
 -1.392037	
 -1.335506	
 -1.329918	
 -1.359990	
 -1.400250	
 -1.415041	
 -1.419641	
 -1.419148	
 -1.403371	
 -1.387595	
 -1.371818	
 -1.366230	
 -1.365736	
 -1.360149	
 -1.349467	
 -1.333691	
 -1.328103	
 -1.307232	
 -1.271079	
 -1.250209	
 -1.239527	
 -1.249223	
 -1.253824	
 -1.299180	
 -1.298687	
 -1.272723	
 -1.267136	
 -1.266643	
 -1.271244	
 -1.286035	
 -1.285542	
 -1.285050	
 -1.228519	
 -1.202556	
 -1.191874	
 -1.196476	
 -1.190890	
 -1.200586	
 -1.194999	
 -1.204696	
 -1.234770	
 -1.254655	
 -1.249068	
 -1.243482	
 -1.212424	
 -1.217026	
 -1.262384	
 -1.256798	
 -1.256306	
 -1.230342	
 -1.224756	
 -1.208982	
 -1.208490	
 -1.223281	
 -1.232979	
 -1.217203	
 -1.237090	
 -1.241693	
 -1.246296	
 -1.250899	
 -1.270785	
 -1.265199	
 -1.279991	
 -1.315161	
 -1.319764	
 -1.278518	
 -1.278027	
 -1.282630	
 -1.261762	
 -1.240894	
 -1.225121	
 -1.229724	
 -1.244516	
 -1.274592	
 -1.319950	
 -1.339837	
 -1.349535	
 -1.349045	
 -1.338366	
 -1.342970	
 -1.332290	
 -1.341989	
 -1.331310	
 -1.315537	
 -1.320142	
 -1.340029	
 -1.324256	
 -1.318672	
 -1.318182	
 -1.322786	
 -1.347768	
 -1.342183	
 -1.336600	
 -1.351393	
 -1.396752	
 -1.431924	
 -1.436528	
 -1.456417	
 -1.410077	
 -1.363739	
 -1.353061	
 -1.316912	
 -1.301139	
 -1.321027	
 -1.310350	
 -1.320049	
 -1.350126	
 -1.364921	
 -1.384809	
 -1.399603	
 -1.419492	
 -1.429192	
 -1.438892	
 -1.407838	
 -1.417537	
 -1.417049	
 -1.457315	
 -1.441544	
 -1.420678	
 -1.430379	
 -1.414607	
 -1.383553	
 -1.383064	
 -1.423331	
 -1.448315	
 -1.473299	
 -1.457528	
 -1.462135	
 -1.461647	
 -1.425499	
 -1.430105	
 -1.419429	
 -1.378186	
 -1.342039	
 -1.351740	
 -1.356347	
 -1.381331	
 -1.426693	
 -1.441489	
 -1.410435	
 -1.435420	
 -1.465499	
 -1.490483	
 -1.484902	
 -1.474226	
 -1.468645	
 -1.452876	
 -1.442200	
 -1.426430	
 -1.395378	
 -1.379608	
 -1.394405	
 -1.404107	
 -1.398526	
 -1.408228	
 -1.366987	
 -1.330841	
 -1.376204	
 -1.396095	
 -1.446552	
 -1.420594	
 -1.409921	
 -1.414529	
 -1.429326	
 -1.433934	
 -1.392693	
 -1.346359	
 -1.315307	
 -1.314822	
 -1.339808	
 -1.339323	
 -1.364309	
 -1.394390	
 -1.470320	
 -1.469835	
 -1.448973	
 -1.407733	
 -1.381776	
 -1.376197	
 -1.385900	
 -1.405793	
 -1.405308	
 -1.384446	
 -1.333018	
 -1.291779	
 -1.321860	
 -1.331565	
 -1.310702	
 -1.330596	
 -1.330112	
 -1.360194	
 -1.380086	
 -1.379602	
 -1.404590	
 -1.424484	
 -1.449472	
 -1.387856	
 -1.366995	
 -1.346133	
 -1.320179	
 -1.345166	
 -1.365061	
 -1.328916	
 -1.323339	
 -1.322856	
 -1.332561	
 -1.352455	
 -1.377444	
 -1.376961	
 -1.396855	
 -1.396372	
 -1.400984	
 -1.395407	
 -1.410207	
 -1.409724	
 -1.378676	
 -1.352721	
 -1.352239	
 -1.351756	
 -1.371652	
 -1.345698	
 -1.335027	
 -1.324357	
 -1.359534	
 -1.389618	
 -1.378949	
 -1.388655	
 -1.403456	
 -1.418257	
 -1.412682	
 -1.412200	
 -1.416812	
 -1.370482	
 -1.364907	
 -1.328764	
 -1.328283	
 -1.343085	
 -1.362982	
 -1.337029	
 -1.321265	
 -1.325878	
 -1.320303	
 -1.289256	
 -1.304059	
 -1.339238	
 -1.379512	
 -1.368844	
 -1.353079	
 -1.327128	
 -1.311365	
 -1.295602	
 -1.269649	
 -1.279357	
 -1.278877	
 -1.293681	
 -1.293202	
 -1.277438	
 -1.317713	
 -1.312139	
 -1.326943	
 -1.326463	
 -1.325984	
 -1.335693	
 -1.360686	
 -1.350018	
 -1.354633	
 -1.379626	
 -1.353675	
 -1.286970	
 -1.291585	
 -1.275823	
 -1.260061	
 -1.259583	
 -1.279481	
 -1.299381	
 -1.329468	
 -1.313707	
 -1.328511	
 -1.343316	
 -1.342838	
 -1.347454	
 -1.352071	
 -1.336309	
 -1.315454	
 -1.289504	
 -1.283933	
 -1.283455	
 -1.277884	
 -1.267217	
 -1.271834	
 -1.296828	
 -1.332011	
 -1.357006	
 -1.331057	
 -1.300014	
 -1.314820	
 -1.324532	
 -1.339338	
 -1.318484	
 -1.272159	
 -1.251304	
 -1.250828	
 -1.214691	
 -1.219309	
 -1.218833	
 -1.223450	
 -1.258635	
 -1.258159	
 -1.267872	
 -1.287773	
 -1.302580	
 -1.332671	
 -1.347478	
 -1.311342	
 -1.280301	
 -1.254354	
 -1.253878	
 -1.233025	
 -1.222362	
 -1.252453	
 -1.246883	
 -1.251503	
 -1.245933	
 -1.265836	
 -1.290833	
 -1.310735	
 -1.320450	
 -1.325069	
 -1.334784	
 -1.308838	
 -1.338929	
 -1.338455	
 -1.312509	
 -1.296752	
 -1.275901	
 -1.280521	
 -1.259670	
 -1.254103	
 -1.258723	
 -1.283722	
 -1.278153	
 -1.267492	
 -1.277206	
 -1.332771	
 -1.342487	
 -1.336920	
 -1.331352	
 -1.330879	
 -1.294746	
 -1.263708	
 -1.263235	
 -1.252573	
 -1.241912	
 -1.215967	
 -1.225684	
 -1.220118	
 -1.240023	
 -1.244646	
 -1.254362	
 -1.289551	
 -1.273796	
 -1.258041	
 -1.252474	
 -1.267286	
 -1.287192	
 -1.271438	
 -1.250589	
 -1.245023	
 -1.244552	
 -1.254270	
 -1.258893	
 -1.268611	
 -1.263045	
 -1.288047	
 -1.297765	
 -1.297294	
 -1.312107	
 -1.321825	
 -1.311166	
 -1.300507	
 -1.310226	
 -1.299567	
 -1.273625	
 -1.237495	
 -1.206459	
 -1.190706	
 -1.210614	
 -1.215238	
 -1.189298	
 -1.188828	
 -1.203642	
 -1.238833	
 -1.274024	
 -1.329593	
 -1.313842	
 -1.308278	
 -1.292526	
 -1.261491	
 -1.220268	
 -1.214705	
 -1.214237	
 -1.208673	
 -1.223489	
 -1.233209	
 -1.237836	
 -1.237368	
 -1.262371	
 -1.266998	
 -1.235964	
 -1.220214	
 -1.209557	
 -1.265128	
 -1.295226	
 -1.289665	
 -1.279009	
 -1.278542	
 -1.267886	
 -1.267419	
 -1.216009	
 -1.184975	
 -1.164132	
 -1.194231	
 -1.178481	
 -1.234053	
 -1.310002	
 -1.309536	
 -1.293786	
 -1.313698	
 -1.303043	
 -1.266917	
 -1.256263	
 -1.265985	
 -1.255332	
 -1.254866	
 -1.254401	
 -1.218274	
 -1.197432	
 -1.191872	
 -1.232162	
 -1.252075	
 -1.261798	
 -1.271523	
 -1.260869	
 -1.270593	
 -1.285412	
 -1.310420	
 -1.294672	
 -1.263642	
 -1.247895	
 -1.232148	
 -1.246967	
 -1.261786	
 -1.276605	
 -1.260859	
 -1.250206	
 -1.219177	
 -1.203431	
 -1.253910	
 -1.273825	
 -1.283551	
 -1.283088	
 -1.272436	
 -1.261784	
 -1.271511	
 -1.291425	
 -1.260397	
 -1.239557	
 -1.239095	
 -1.238633	
 -1.233076	
 -1.222426	
 -1.227058	
 -1.231690	
 -1.261795	
 -1.286804	
 -1.271060	
 -1.255315	
 -1.275232	
 -1.330808	
 -1.315064	
 -1.284037	
 -1.237727	
 -1.211794	
 -1.180767	
 -1.149740	
 -1.159469	
 -1.164102	
 -1.163642	
 -1.168276	
 -1.178004	
 -1.208110	
 -1.228028	
 -1.263228	
 -1.252581	
 -1.262309	
 -1.277132	
 -1.271579	
 -1.255836	
 -1.219716	
 -1.183597	
 -1.178044	
 -1.167396	
 -1.177126	
 -1.181761	
 -1.160924	
 -1.134995	
 -1.144724	
 -1.179927	
 -1.174374	
 -1.184104	
 -1.188741	
 -1.142433	
 -1.116504	
 -1.105857	
 -1.100306	
 -1.064187	
 -1.068824	
 -1.088744	
 -1.098476	
 -1.098019	
 -1.066995	
 -1.076727	
 -1.091553	
 -1.121662	
 -1.131394	
 -1.120749	
 -1.171236	
 -1.180969	
 -1.155040	
 -1.134206	
 -1.123562	
 -1.128200	
 -1.107367	
 -1.096722	
 -1.055512	
 -1.065245	
 -1.100450	
 -1.110183	
 -1.140294	
 -1.160217	
 -1.185233	
 -1.133835	
 -1.118097	
 -1.127830	
 -1.183414	
 -1.193148	
 -1.172317	
 -1.166767	
 -1.145936	
 -1.125104	
 -1.124650	
 -1.129291	
 -1.113554	
 -1.077440	
 -1.102458	
 -1.132571	
 -1.177966	
 -1.192796	
 -1.187249	
 -1.191890	
 -1.191437	
 -1.180796	
 -1.190531	
 -1.195173	
 -1.179438	
 -1.148420	
 -1.137778	
 -1.101665	
 -1.075742	
 -1.085478	
 -1.115592	
 -1.145707	
 -1.160539	
 -1.180464	
 -1.174918	
 -1.169372	
 -1.174016	
 -1.168470	
 -1.162925	
 -1.203229	
 -1.223155	
 -1.243082	
 -1.227349	
 -1.201426	
 -1.144938	
 -1.119015	
 -1.138943	
 -1.138493	
 -1.178797	
 -1.168159	
 -1.188087	
 -1.177448	
 -1.171905	
 -1.176549	
 -1.150629	
 -1.134897	
 -1.124259	
 -1.169659	
 -1.143738	
 -1.112723	
 -1.112274	
 -1.127109	
 -1.152132	
 -1.192439	
 -1.222557	
 -1.262864	
 -1.303171	
 -1.358761	
 -1.378690	
 -1.418998	
 -1.484776	
 -1.545462	
 -1.585768	
 -1.615888	
 -1.707139	
 -1.767824	
 -1.874359	
 -1.940139	
 -2.016108	
 -2.056415	
 -2.106913	
 -2.147222	
 -2.156965	
 -2.141235	
 -2.100035	
 -2.069023	
 -2.043105	
 -2.006998	
 -2.026931	
 -1.995919	
 -1.873209	
 -1.770877	
 -1.637979	
 -1.499986	
 -1.326333	
 -1.137398	
 -0.989217	
 -0.830847	
 -0.713233	
 -0.570147	
 -0.406683	
 -0.207559	
 -0.074662	
 0.063329	
 0.175849	
 0.211953	
 0.232774	
 0.151707	
 0.024792	
 -0.107219	
 -0.198474	
 -0.259163	
 -0.330041	
 -0.390732	
 -0.471798	
 -0.532488	
 -0.593178	
 -0.684434	
 -0.790974	
 -0.887324	
 -0.948015	
 -0.998517	
 -1.033736	
 -1.058766	
 -1.078702	
 -1.052789	
 -1.057442	
 -1.057001	
 -1.071843	
 -1.061214	
 -1.050585	
 -1.055238	
 -1.049704	
 -1.064547	
 -1.079389	
 -1.089138	
 -1.103981	
 -1.108636	
 -1.128574	
 -1.128134	
 -1.178638	
 -1.183294	
 -1.111533	
 -1.095811	
 -1.090277	
 -1.074555	
 -1.084306	
 -1.058395	
 -1.103806	
 -1.118650	
 -1.067269	
 -1.056642	
 -1.061298	
 -1.096521	
 -1.111366	
 -1.136401	
 -1.176718	
 -1.196658	
 -1.155465	
 -1.134651	
 -1.154591	
 -1.154154	
 -1.107868	
 -1.092149	
 -1.091712	
 -1.081087	
 -1.106122	
 -1.156630	
 -1.146005	
 -1.160852	
 -1.155322	
 -1.190547	
 -1.225771	
 -1.199865	
 -1.173957	
 -1.158239	
 -1.147615	
 -1.142086	
 -1.136556	
 -1.120839	
 -1.100027	
 -1.074120	
 -1.053309	
 -1.078347	
 -1.123762	
 -1.148800	
 -1.184026	
 -1.178498	
 -1.193348	
 -1.187819	
 -1.187386	
 -1.227708	
 -1.186520	
 -1.135144	
 -1.099050	
 -1.088429	
 -1.103279	
 -1.113035	
 -1.097320	
 -1.091793	
 -1.116833	
 -1.141873	
 -1.166912	
 -1.166481	
 -1.155861	
 -1.170713	
 -1.154998	
 -1.164755	
 -1.149041	
 -1.112950	
 -1.087047	
 -1.066240	
 -1.111658	
 -1.121415	
 -1.120985	
 -1.120555	
 -1.140503	
 -1.185922	
 -1.190586	
 -1.190156	
 -1.184633	
 -1.168920	
 -1.148114	
 -1.122213	
 -1.147256	
 -1.141732	
 -1.120926	
 -1.084837	
 -1.033465	
 -1.063603	
 -1.078457	
 -1.083123	
 -1.082695	
 -1.082267	
 -1.081840	
 -1.117073	
 -1.131928	
 -1.136595	
 -1.171829	
 -1.151024	
 -1.165880	
 -1.160359	
 -1.114083	
 -1.103468	
 -1.097947	
 -1.072049	
 -1.066529	
 -1.050820	
 -1.060582	
 -1.075439	
 -1.110674	
 -1.135721	
 -1.176049	
 -1.175624	
 -1.175199	
 -1.190057	
 -1.194727	
 -1.158641	
 -1.132745	
 -1.091566	
 -1.065670	
 -1.039773	
 -1.075010	
 -1.079680	
 -1.094539	
 -1.053361	
 -1.052937	
 -1.093269	
 -1.128507	
 -1.189215	
 -1.168414	
 -1.142520	
 -1.121720	
 -1.100920	
 -1.100498	
 -1.079697	
 -1.074181	
 -1.053382	
 -1.047865	
 -1.067821	
 -1.062304	
 -1.056789	
 -1.056367	
 -1.111984	
 -1.131940	
 -1.136614	
 -1.161664	
 -1.156149	
 -1.160823	
 -1.175685	
 -1.170171	
 -1.134091	
 -1.154048	
 -1.143439	
 -1.092076	
 -1.117128	
 -1.111614	
 -1.075534	
 -1.039454	
 -1.013563	
 -1.048805	
 -1.073858	
 -1.093816	
 -1.088304	
 -1.098074	
 -1.163882	
 -1.173653	
 -1.198707	
 -1.177911	
 -1.146927	
 -1.126133	
 -1.115526	
 -1.110015	
 -1.109598	
 -1.144841	
 -1.124047	
 -1.103252	
 -1.128307	
 -1.153363	
 -1.132568	
 -1.101586	
 -1.106265	
 -1.110943	
 -1.105433	
 -1.125395	
 -1.119885	
 -1.139847	
 -1.149620	
 -1.128827	
 -1.108035	
 -1.087243	
 -1.097017	
 -1.101697	
 -1.106377	
 -1.105962	
 -1.110642	
 -1.120417	
 -1.099626	
 -1.104307	
 -1.119176	
 -1.103480	
 -1.082689	
 -1.051709	
 -1.041108	
 -1.045789	
 -1.055566	
 -1.055153	
 -1.070023	
 -1.069611	
 -1.074293	
 -1.053504	
 -1.058186	
 -1.093435	
 -1.123590	
 -1.123178	
 -1.138050	
 -1.086695	
 -1.065907	
 -1.070590	
 -1.044707	
 -1.044296	
 -1.028603	
 -1.018005	
 -1.012499	
 -1.022278	
 -1.021869	
 -1.001082	
 -1.010860	
 -1.015546	
 -1.015136	
 -0.999444	
 -0.999035	
 -0.998626	
 -0.998218	
 -1.018186	
 -0.941362	
 -0.920576	
 -0.899791	
 -0.889194	
 -0.898975	
 -0.873095	
 -0.882877	
 -0.846808	
 -0.856590	
 -0.851089	
 -0.865965	
 -0.891029	
 -0.865151	
 -0.890216	
 -0.884715	
 -0.894498	
 -0.899186	
 -0.873308	
 -0.857619	
 -0.852119	
 -0.846620	
 -0.820742	
 -0.774488	
 -0.768988	
 -0.753300	
 -0.768178	
 -0.772868	
 -0.787747	
 -0.838286	
 -0.832787	
 -0.837477	
 -0.837073	
 -0.867236	
 -0.877021	
 -0.820579	
 -0.784516	
 -0.758641	
 -0.742955	
 -0.727269	
 -0.737055	
 -0.757029	
 -0.761721	
 -0.776602	
 -0.806766	
 -0.826742	
 -0.821246	
 -0.795372	
 -0.800064	
 -0.835324	
 -0.860394	
 -0.839616	
 -0.829026	
 -0.828625	
 -0.848602	
 -0.832919	
 -0.817235	
 -0.816835	
 -0.796057	
 -0.795657	
 -0.836012	
 -0.871273	
 -0.875968	
 -0.880663	
 -0.880264	
 -0.879865	
 -0.894749	
 -0.924916	
 -0.863385	
 -0.801855	
 -0.786174	
 -0.785776	
 -0.800661	
 -0.820640	
 -0.835525	
 -0.850411	
 -0.875485	
 -0.890371	
 -0.900163	
 -0.955804	
 -0.945218	
 -0.955011	
 -0.949519	
 -0.959312	
 -0.969105	
 -0.958520	
 -0.947935	
 -0.942445	
 -0.926767	
 -0.931465	
 -0.915787	
 -0.925581	
 -0.955752	
 -0.975735	
 -0.944774	
 -0.949474	
 -0.969457	
 -0.984346	
 -1.009424	
 -1.019219	
 -1.039202	
 -0.987866	
 -0.956906	
 -0.936135	
 -0.956120	
 -0.965915	
 -0.955335	
 -0.939658	
 -0.923982	
 -0.938873	
 -0.979236	
 -0.973750	
 -0.998830	
 -0.998439	
 -1.003141	
 -0.992561	
 -1.012547	
 -1.032533	
 -1.011765	
 -1.001186	
 -0.995701	
 -1.005499	
 -1.000014	
 -0.974152	
 -0.973762	
 -0.978468	
 -0.988266	
 -0.992971	
 -1.002770	
 -1.012570	
 -1.007087	
 -1.011792	
 -1.031781	
 -1.021204	
 -0.990249	
 -0.964389	
 -0.974190	
 -0.943236	
 -0.922470	
 -0.922083	
 -0.947167	
 -0.956969	
 -0.966770	
 -0.991855	
 -1.022034	
 -1.031836	
 -1.062016	
 -1.041253	
 -1.010300	
 -1.009914	
 -0.999340	
 -0.963293	
 -0.927247	
 -0.921767	
 -0.936666	
 -0.977035	
 -0.971556	
 -0.981360	
 -0.980975	
 -1.006063	
 -1.036245	
 -1.046049	
 -1.066043	
 -1.045281	
 -1.019426	
 -1.013948	
 -1.018659	
 -1.028464	
 -0.992421	
 -0.976755	
 -0.966184	
 -0.945424	
 -0.950136	
 -0.939565	
 -0.959561	
 -0.989745	
 -1.035212	
 -1.024642	
 -1.003883	
 -0.972936	
 -0.962366	
 -0.992551	
 -0.997265	
 -1.042734	
 -1.057636	
 -1.016501	
 -0.990649	
 -0.980080	
 -0.984796	
 -0.979321	
 -0.958564	
 -0.947996	
 -0.967995	
 -1.018559	
 -0.987614	
 -0.977047	
 -0.956291	
 -0.961007	
 -0.996290	
 -0.985723	
 -0.990440	
 -0.969685	
 -0.964213	
 -0.943458	
 -0.922704	
 -0.932516	
 -0.916856	
 -0.906290	
 -0.890631	
 -0.900442	
 -0.935727	
 -0.950634	
 -0.991014	
 -0.990638	
 -1.015734	
 -1.015359	
 -1.030267	
 -1.014609	
 -0.983668	
 -0.942538	
 -0.896314	
 -0.901035	
 -0.844622	
 -0.849342	
 -0.884630	
 -0.930105	
 -0.955203	
 -0.954830	
 -0.964645	
 -1.010122	
 -1.035220	
 -1.045036	
 -1.019192	
 -1.013726	
 -0.977693	
 -0.926377	
 -0.915817	
 -0.925634	
 -0.915073	
 -0.904514	
 -0.924520	
 -0.929243	
 -0.923778	
 -0.964162	
 -0.979075	
 -1.004177	
 -0.983428	
 -0.972870	
 -0.967406	
 -0.977225	
 -0.966666	
 -0.930637	
 -0.925173	
 -0.899333	
 -0.848020	
 -0.873124	
 -0.898227	
 -0.923330	
 -0.917868	
 -0.912406	
 -0.932415	
 -0.947330	
 -0.977529	
 -0.992444	
 -0.997172	
 -0.981522	
 -0.940401	
 -0.940034	
 -0.909102	
 -0.913829	
 -0.923652	
 -0.872342	
 -0.851599	
 -0.866517	
 -0.871245	
 -0.870880	
 -0.885798	
 -0.905811	
 -0.895258	
 -0.905082	
 -0.889435	
 -0.878881	
 -0.868328	
 -0.888342	
 -0.877790	
 -0.867237	
 -0.866874	
 -0.861417	
 -0.861054	
 -0.855596	
 -0.850139	
 -0.859966	
 -0.885075	
 -0.940750	
 -0.955672	
 -0.985876	
 -0.990609	
 -0.964775	
 -0.969509	
 -0.964053	
 -0.958598	
 -0.942954	
 -0.912027	
 -0.881101	
 -0.860363	
 -0.844720	
 -0.818888	
 -0.828717	
 -0.848734	
 -0.878942	
 -0.893866	
 -0.908790	
 -0.928808	
 -0.933543	
 -0.958657	
 -0.943015	
 -0.942657	
 -0.993243	
 -0.947036	
 -0.921207	
 -0.890283	
 -0.864454	
 -0.838625	
 -0.838268	
 -0.858288	
 -0.852837	
 -0.893236	
 -0.913257	
 -0.917996	
 -0.917640	
 -0.932567	
 -0.947495	
 -0.936950	
 -0.982444	
 -0.956618	
 -0.915508	
 -0.904964	
 -0.909704	
 -0.894067	
 -0.852958	
 -0.852604	
 -0.811496	
 -0.806047	
 -0.851543	
 -0.871568	
 -0.886497	
 -0.921805	
 -0.941830	
 -0.956760	
 -0.936031	
 -0.920395	
 -0.884383	
 -0.873842	
 -0.868396	
 -0.842573	
 -0.847315	
 -0.852059	
 -0.861897	
 -0.846263	
 -0.901950	
 -0.911789	
 -0.870683	
 -0.890711	
 -0.920927	
 -0.905295	
 -0.879473	
 -0.879124	
 -0.899152	
 -0.883520	
 -0.883171	
 -0.867539	
 -0.857003	
 -0.836277	
 -0.856307	
 -0.871242	
 -0.875988	
 -0.901112	
 -0.921142	
 -0.905512	
 -0.951014	
 -0.965950	
 -0.955415	
 -0.929597	
 -0.903779	
 -0.893244	
 -0.892898	
 -0.907835	
 -0.856546	
 -0.846012	
 -0.840573	
 -0.850417	
 -0.865355	
 -0.849727	
 -0.808628	
 -0.803188	
 -0.858882	
 -0.899293	
 -0.893856	
 -0.913889	
 -0.933924	
 -0.913202	
 -0.867010	
 -0.851385	
 -0.871419	
 -0.876171	
 -0.906395	
 -0.895864	
 -0.859862	
 -0.808576	
 -0.818424	
 -0.858837	
 -0.909439	
 -0.909098	
 -0.898568	
 -0.903323	
 -0.913171	
 -0.928114	
 -0.912491	
 -0.907056	
 -0.881244	
 -0.819773	
 -0.788867	
 -0.803811	
 -0.818755	
 -0.838794	
 -0.858833	
 -0.868683	
 -0.868345	
 -0.857818	
 -0.872763	
 -0.902991	
 -0.902654	
 -0.871750	
 -0.881602	
 -0.871076	
 -0.855456	
 -0.850026	
 -0.854783	
 -0.885013	
 -0.854111	
 -0.818114	
 -0.817778	
 -0.822538	
 -0.878241	
 -0.903378	
 -0.933609	
 -0.928179	
 -0.953316	
 -0.958076	
 -0.911893	
 -0.916654	
 -0.890848	
 -0.900703	
 -0.859615	
 -0.843999	
 -0.853853	
 -0.828050	
 -0.797150	
 -0.791723	
 -0.842335	
 -0.908229	
 -0.887520	
 -0.871905	
 -0.907234	
 -0.906902	
 -0.937137	
 -0.967372	
 -0.967041	
 -0.931050	
 -0.900154	
 -0.879446	
 -0.868928	
 -0.868598	
 -0.858079	
 -0.862843	
 -0.893081	
 -0.918223	
 -0.928083	
 -0.922660	
 -0.968181	
 -0.967852	
 -0.931863	
 -0.931535	
 -0.931207	
 -0.925786	
 -0.884703	
 -0.879282	
 -0.843294	
 -0.848062	
 -0.842640	
 -0.877975	
 -0.847082	
 -0.816190	
 -0.820958	
 -0.820633	
 -0.861062	
 -0.916775	
 -0.911355	
 -0.905936	
 -0.885234	
 -0.869625	
 -0.854018	
 -0.853694	
 -0.827898	
 -0.827575	
 -0.806873	
 -0.796361	
 -0.790943	
 -0.770243	
 -0.795391	
 -0.820541	
 -0.835501	
 -0.840274	
 -0.809386	
 -0.783592	
 -0.773081	
 -0.747287	
 -0.736778	
 -0.705890	
 -0.700475	
 -0.700154	
 -0.689644	
 -0.699513	
 -0.724665	
 -0.719251	
 -0.718931	
 -0.738988	
 -0.759046	
 -0.789293	
 -0.829729	
 -0.798844	
 -0.788336	
 -0.777830	
 -0.782605	
 -0.767004	
 -0.756497	
 -0.745992	
 -0.750768	
 -0.765734	
 -0.734851	
 -0.698873	
 -0.673085	
 -0.693145	
 -0.743773	
 -0.753645	
 -0.748235	
 -0.747919	
 -0.767981	
 -0.798232	
 -0.818294	
 -0.853639	
 -0.848230	
 -0.817350	
 -0.827224	
 -0.832004	
 -0.831690	
 -0.770244	
 -0.754648	
 -0.744145	
 -0.759115	
 -0.799557	
 -0.839999	
 -0.834591	
 -0.818996	
 -0.798307	
 -0.823466	
 -0.818060	
 -0.817748	
 -0.802153	
 -0.786559	
 -0.765871	
 -0.765560	
 -0.780532	
 -0.739467	
 -0.739157	
 -0.754129	
 -0.814952	
 -0.824831	
 -0.809238	
 -0.824212	
 -0.834092	
 -0.843971	
 -0.828379	
 -0.828071	
 -0.787008	
 -0.751039	
 -0.755825	
 -0.745329	
 -0.755210	
 -0.749808	
 -0.759690	
 -0.744100	
 -0.774359	
 -0.860657	
 -0.870540	
 -0.849855	
 -0.834266	
 -0.849244	
 -0.859127	
 -0.863916	
 -0.858516	
 -0.812362	
 -0.761114	
 -0.725149	
 -0.699373	
 -0.719445	
 -0.714047	
 -0.749404	
 -0.764383	
 -0.799741	
 -0.835097	
 -0.839889	
 -0.880342	
 -0.900416	
 -0.940869	
 -0.971132	
 -1.006491	
 -1.062227	
 -1.067020	
 -1.107473	
 -1.147926	
 -1.218946	
 -1.284872	
 -1.366082	
 -1.442196	
 -1.503028	
 -1.584238	
 -1.670542	
 -1.777224	
 -1.883906	
 -1.944739	
 -1.908780	
 -1.847348	
 -1.791012	
 -1.724487	
 -1.678340	
 -1.652570	
 -1.601328	
 -1.544993	
 -1.498846	
 -1.457794	
 -1.391271	
 -1.289087	
 -1.095205	
 -0.896228	
 -0.748196	
 -0.605258	
 -0.436848	
 -0.268439	
 -0.069464	
 0.144794	
 0.338674	
 0.496894	
 0.624547	
 0.696163	
 0.721929	
 0.666185	
 0.513648	
 0.361111	
 0.249329	
 0.193584	
 0.102179	
 -0.009604	
 -0.111199	
 -0.187321	
 -0.268539	
 -0.354851	
 -0.461541	
 -0.578420	
 -0.613789	
 -0.603309	
 -0.618301	
 -0.653671	
 -0.653380	
 -0.668373	
 -0.693555	
 -0.744208	
 -0.774485	
 -0.794573	
 -0.799377	
 -0.773617	
 -0.773328	
 -0.783228	
 -0.762562	
 -0.777557	
 -0.767080	
 -0.746415	
 -0.751221	
 -0.771312	
 -0.745552	
 -0.704510	
 -0.714412	
 -0.714126	
 -0.749499	
 -0.759402	
 -0.820248	
 -0.814868	
 -0.799300	
 -0.804108	
 -0.793634	
 -0.798444	
 -0.798159	
 -0.797874	
 -0.792495	
 -0.792211	
 -0.766456	
 -0.755983	
 -0.765889	
 -0.765605	
 -0.790793	
 -0.790510	
 -0.825888	
 -0.845983	
 -0.820229	
 -0.799569	
 -0.804381	
 -0.834667	
 -0.819102	
 -0.778066	
 -0.782879	
 -0.752032	
 -0.746657	
 -0.756565	
 -0.761379	
 -0.776382	
 -0.811762	
 -0.862427	
 -0.887618	
 -0.902623	
 -0.866683	
 -0.815461	
 -0.820277	
 -0.830187	
 -0.855380	
 -0.844914	
 -0.783503	
 -0.752660	
 -0.752382	
 -0.731728	
 -0.731451	
 -0.726079	
 -0.751275	
 -0.796848	
 -0.837326	
 -0.826863	
 -0.806209	
 -0.790650	
 -0.785281	
 -0.805383	
 -0.810203	
 -0.809928	
 -0.779087	
 -0.773719	
 -0.758162	
 -0.747699	
 -0.762708	
 -0.742058	
 -0.741785	
 -0.756795	
 -0.797277	
 -0.812287	
 -0.796732	
 -0.816837	
 -0.811471	
 -0.841765	
 -0.836400	
 -0.841222	
 -0.856234	
 -0.835586	
 -0.784372	
 -0.768818	
 -0.788925	
 -0.768278	
 -0.757819	
 -0.726984	
 -0.736903	
 -0.762106	
 -0.736365	
 -0.787039	
 -0.807149	
 -0.827257	
 -0.837178	
 -0.806344	
 -0.800982	
 -0.795620	
 -0.795353	
 -0.784896	
 -0.789725	
 -0.774175	
 -0.733153	
 -0.737981	
 -0.727527	
 -0.757827	
 -0.777939	
 -0.798051	
 -0.807974	
 -0.812804	
 -0.797256	
 -0.796992	
 -0.812010	
 -0.811746	
 -0.786010	
 -0.755181	
 -0.749822	
 -0.729182	
 -0.744202	
 -0.769411	
 -0.789525	
 -0.748508	
 -0.763529	
 -0.788739	
 -0.788477	
 -0.803498	
 -0.823615	
 -0.833542	
 -0.823093	
 -0.863586	
 -0.868421	
 -0.827405	
 -0.796579	
 -0.781036	
 -0.760399	
 -0.775422	
 -0.785352	
 -0.779999	
 -0.754268	
 -0.764199	
 -0.799600	
 -0.829908	
 -0.850028	
 -0.829393	
 -0.849513	
 -0.833973	
 -0.864282	
 -0.848742	
 -0.817919	
 -0.807474	
 -0.797028	
 -0.801867	
 -0.796517	
 -0.811544	
 -0.790912	
 -0.734618	
 -0.764930	
 -0.779958	
 -0.820458	
 -0.825298	
 -0.840327	
 -0.850262	
 -0.839819	
 -0.844661	
 -0.839313	
 -0.823777	
 -0.818430	
 -0.792705	
 -0.797548	
 -0.802390	
 -0.791949	
 -0.796792	
 -0.847484	
 -0.872705	
 -0.852075	
 -0.821259	
 -0.805725	
 -0.851324	
 -0.851073	
 -0.850823	
 -0.850574	
 -0.850324	
 -0.865359	
 -0.824355	
 -0.778257	
 -0.757630	
 -0.716627	
 -0.701095	
 -0.711036	
 -0.771921	
 -0.827711	
 -0.832558	
 -0.827216	
 -0.821875	
 -0.831817	
 -0.806099	
 -0.831324	
 -0.825984	
 -0.805361	
 -0.794926	
 -0.769209	
 -0.753681	
 -0.753436	
 -0.768474	
 -0.763136	
 -0.783268	
 -0.793213	
 -0.772592	
 -0.767254	
 -0.782293	
 -0.787145	
 -0.797090	
 -0.786659	
 -0.791510	
 -0.765796	
 -0.755365	
 -0.765312	
 -0.744693	
 -0.744452	
 -0.759494	
 -0.764346	
 -0.774295	
 -0.768960	
 -0.727965	
 -0.712441	
 -0.727485	
 -0.752716	
 -0.788137	
 -0.792992	
 -0.792753	
 -0.746665	
 -0.695483	
 -0.669773	
 -0.659346	
 -0.699863	
 -0.669059	
 -0.663727	
 -0.643112	
 -0.627592	
 -0.642638	
 -0.627119	
 -0.606505	
 -0.631740	
 -0.641693	
 -0.661834	
 -0.651411	
 -0.640986	
 -0.605091	
 -0.584478	
 -0.563867	
 -0.553443	
 -0.568492	
 -0.552975	
 -0.542552	
 -0.516847	
 -0.536991	
 -0.546947	
 -0.541619	
 -0.566859	
 -0.551343	
 -0.530734	
 -0.555973	
 -0.586307	
 -0.611547	
 -0.529807	
 -0.463349	
 -0.422363	
 -0.411943	
 -0.396430	
 -0.391106	
 -0.431631	
 -0.421212	
 -0.461737	
 -0.517546	
 -0.563166	
 -0.557843	
 -0.532142	
 -0.506442	
 -0.490930	
 -0.490702	
 -0.505758	
 -0.464775	
 -0.454360	
 -0.459227	
 -0.453906	
 -0.468962	
 -0.478923	
 -0.514358	
 -0.524321	
 -0.564849	
 -0.564624	
 -0.538928	
 -0.528513	
 -0.543571	
 -0.568819	
 -0.558405	
 -0.578558	
 -0.598712	
 -0.537356	
 -0.501472	
 -0.506342	
 -0.541780	
 -0.551746	
 -0.582090	
 -0.586961	
 -0.622400	
 -0.637461	
 -0.637239	
 -0.642112	
 -0.652079	
 -0.641669	
 -0.631259	
 -0.615756	
 -0.600252	
 -0.600032	
 -0.599812	
 -0.584309	
 -0.573901	
 -0.609343	
 -0.609124	
 -0.593622	
 -0.588309	
 -0.639034	
 -0.679571	
 -0.704825	
 -0.699512	
 -0.668728	
 -0.668511	
 -0.668294	
 -0.703738	
 -0.708616	
 -0.713493	
 -0.703089	
 -0.677401	
 -0.666996	
 -0.666781	
 -0.646189	
 -0.661257	
 -0.671231	
 -0.696487	
 -0.706462	
 -0.701154	
 -0.685657	
 -0.700726	
 -0.771834	
 -0.751243	
 -0.725558	
 -0.679496	
 -0.638528	
 -0.658694	
 -0.689048	
 -0.699025	
 -0.678435	
 -0.713885	
 -0.688202	
 -0.703274	
 -0.728535	
 -0.748702	
 -0.773963	
 -0.768659	
 -0.763355	
 -0.727485	
 -0.706898	
 -0.701594	
 -0.665726	
 -0.660422	
 -0.665308	
 -0.690571	
 -0.705646	
 -0.720721	
 -0.725609	
 -0.710118	
 -0.725194	
 -0.745365	
 -0.750253	
 -0.765329	
 -0.785500	
 -0.785294	
 -0.790183	
 -0.815449	
 -0.805055	
 -0.764096	
 -0.733325	
 -0.697459	
 -0.687066	
 -0.666485	
 -0.650998	
 -0.686454	
 -0.706629	
 -0.726803	
 -0.721506	
 -0.726397	
 -0.756760	
 -0.771841	
 -0.776734	
 -0.751060	
 -0.766142	
 -0.750657	
 -0.724984	
 -0.719689	
 -0.688922	
 -0.673439	
 -0.693616	
 -0.698510	
 -0.723782	
 -0.738865	
 -0.759044	
 -0.758845	
 -0.784117	
 -0.773730	
 -0.753154	
 -0.773334	
 -0.737475	
 -0.701617	
 -0.691231	
 -0.701222	
 -0.726497	
 -0.705923	
 -0.675160	
 -0.674964	
 -0.679862	
 -0.674572	
 -0.699848	
 -0.745502	
 -0.730023	
 -0.714545	
 -0.744917	
 -0.775288	
 -0.790377	
 -0.779994	
 -0.739046	
 -0.713381	
 -0.687715	
 -0.667145	
 -0.651669	
 -0.636193	
 -0.615623	
 -0.625620	
 -0.635616	
 -0.665991	
 -0.686177	
 -0.711457	
 -0.721455	
 -0.726359	
 -0.751640	
 -0.736167	
 -0.751260	
 -0.756164	
 -0.725408	
 -0.694653	
 -0.694463	
 -0.704462	
 -0.714463	
 -0.693897	
 -0.683520	
 -0.708804	
 -0.698427	
 -0.698240	
 -0.698052	
 -0.733526	
 -0.774093	
 -0.789190	
 -0.783909	
 -0.712402	
 -0.676556	
 -0.610143	
 -0.599769	
 -0.609773	
 -0.614682	
 -0.609403	
 -0.629595	
 -0.675261	
 -0.690360	
 -0.705459	
 -0.710369	
 -0.715281	
 -0.689626	
 -0.679254	
 -0.689260	
 -0.689078	
 -0.678706	
 -0.653052	
 -0.668154	
 -0.673067	
 -0.657603	
 -0.642139	
 -0.636863	
 -0.631588	
 -0.651785	
 -0.677077	
 -0.681991	
 -0.676717	
 -0.666349	
 -0.696736	
 -0.716935	
 -0.696378	
 -0.696200	
 -0.690927	
 -0.685655	
 -0.716043	
 -0.695488	
 -0.674934	
 -0.644190	
 -0.644014	
 -0.638743	
 -0.658944	
 -0.684239	
 -0.684064	
 -0.663510	
 -0.668429	
 -0.683537	
 -0.662984	
 -0.657715	
 -0.683013	
 -0.662461	
 -0.611344	
 -0.595887	
 -0.575335	
 -0.605728	
 -0.600461	
 -0.605382	
 -0.605209	
 -0.630509	
 -0.691469	
 -0.716769	
 -0.747163	
 -0.762274	
 -0.762103	
 -0.761932	
 -0.741384	
 -0.715742	
 -0.715572	
 -0.689930	
 -0.664289	
 -0.648836	
 -0.638478	
 -0.617931	
 -0.617762	
 -0.607405	
 -0.612331	
 -0.632541	
 -0.657844	
 -0.678054	
 -0.657508	
 -0.667530	
 -0.662269	
 -0.662102	
 -0.626275	
 -0.595543	
 -0.590283	
 -0.610494	
 -0.605234	
 -0.620352	
 -0.650753	
 -0.660777	
 -0.670800	
 -0.696108	
 -0.701039	
 -0.695780	
 -0.700711	
 -0.695452	
 -0.695289	
 -0.695126	
 -0.710247	
 -0.720273	
 -0.674262	
 -0.587496	
 -0.587334	
 -0.592266	
 -0.566633	
 -0.566472	
 -0.591783	
 -0.652754	
 -0.683160	
 -0.698284	
 -0.693029	
 -0.682680	
 -0.697805	
 -0.687457	
 -0.692392	
 -0.666761	
 -0.656414	
 -0.630784	
 -0.574588	
 -0.559147	
 -0.589556	
 -0.609776	
 -0.624902	
 -0.645123	
 -0.675532	
 -0.675376	
 -0.665031	
 -0.664875	
 -0.649436	
 -0.669659	
 -0.664408	
 -0.669349	
 -0.648816	
 -0.633378	
 -0.623036	
 -0.612693	
 -0.612539	
 -0.648046	
 -0.642799	
 -0.627363	
 -0.637399	
 -0.667812	
 -0.698226	
 -0.703168	
 -0.708111	
 -0.707959	
 -0.692525	
 -0.692374	
 -0.712600	
 -0.671694	
 -0.640978	
 -0.645922	
 -0.610112	
 -0.599773	
 -0.574152	
 -0.614758	
 -0.614609	
 -0.629743	
 -0.634689	
 -0.680390	
 -0.715902	
 -0.725943	
 -0.685041	
 -0.644138	
 -0.643991	
 -0.679506	
 -0.648793	
 -0.623175	
 -0.612840	
 -0.622883	
 -0.632926	
 -0.637875	
 -0.647919	
 -0.663057	
 -0.703667	
 -0.718805	
 -0.677906	
 -0.657384	
 -0.631770	
 -0.662192	
 -0.662049	
 -0.661906	
 -0.631197	
 -0.600488	
 -0.605440	
 -0.595109	
 -0.630629	
 -0.630487	
 -0.615063	
 -0.609827	
 -0.655535	
 -0.691055	
 -0.660349	
 -0.695869	
 -0.700824	
 -0.705778	
 -0.715828	
 -0.700406	
 -0.690078	
 -0.654278	
 -0.628668	
 -0.618341	
 -0.653863	
 -0.602783	
 -0.551701	
 -0.541376	
 -0.556522	
 -0.597139	
 -0.642853	
 -0.673282	
 -0.688429	
 -0.708671	
 -0.734007	
 -0.708400	
 -0.698077	
 -0.667375	
 -0.616297	
 -0.565219	
 -0.559991	
 -0.564951	
 -0.580100	
 -0.636005	
 -0.671533	
 -0.656117	
 -0.691644	
 -0.676229	
 -0.650624	
 -0.640305	
 -0.629984	
 -0.650229	
 -0.629721	
 -0.649967	
 -0.624365	
 -0.608952	
 -0.608822	
 -0.644352	
 -0.639128	
 -0.623715	
 -0.638869	
 -0.623457	
 -0.628422	
 -0.674143	
 -0.679109	
 -0.678981	
 -0.714513	
 -0.734763	
 -0.739730	
 -0.729414	
 -0.714005	
 -0.662934	
 -0.657713	
 -0.677965	
 -0.652367	
 -0.682808	
 -0.667399	
 -0.677463	
 -0.687526	
 -0.723063	
 -0.738221	
 -0.758474	
 -0.737973	
 -0.732754	
 -0.747914	
 -0.732507	
 -0.712007	
 -0.711885	
 -0.665913	
 -0.670885	
 -0.670763	
 -0.665547	
 -0.629765	
 -0.629643	
 -0.639711	
 -0.644684	
 -0.664942	
 -0.669916	
 -0.679984	
 -0.700242	
 -0.679745	
 -0.674532	
 -0.659129	
 -0.674294	
 -0.674175	
 -0.643490	
 -0.648466	
 -0.653443	
 -0.632948	
 -0.581886	
 -0.576675	
 -0.607124	
 -0.632480	
 -0.662929	
 -0.642435	
 -0.632131	
 -0.642203	
 -0.662466	
 -0.641973	
 -0.636764	
 -0.621366	
 -0.595779	
 -0.590571	
 -0.580268	
 -0.519022	
 -0.493437	
 -0.472947	
 -0.472834	
 -0.452343	
 -0.477702	
 -0.508156	
 -0.497855	
 -0.502838	
 -0.553669	
 -0.604502	
 -0.614580	
 -0.645035	
 -0.619453	
 -0.563304	
 -0.553005	
 -0.491763	
 -0.501843	
 -0.491544	
 -0.481246	
 -0.491326	
 -0.506501	
 -0.542053	
 -0.562322	
 -0.562214	
 -0.597767	
 -0.587471	
 -0.582269	
 -0.566879	
 -0.592244	
 -0.566666	
 -0.535994	
 -0.520605	
 -0.535782	
 -0.520393	
 -0.515194	
 -0.515089	
 -0.525173	
 -0.576012	
 -0.575908	
 -0.601276	
 -0.652115	
 -0.667295	
 -0.621342	
 -0.631428	
 -0.636419	
 -0.631223	
 -0.620931	
 -0.636112	
 -0.610540	
 -0.569683	
 -0.584865	
 -0.584764	
 -0.574474	
 -0.543807	
 -0.538613	
 -0.558890	
 -0.543507	
 -0.573973	
 -0.614629	
 -0.650190	
 -0.675563	
 -0.680559	
 -0.654989	
 -0.614136	
 -0.578377	
 -0.568091	
 -0.562899	
 -0.608652	
 -0.593272	
 -0.608458	
 -0.613456	
 -0.618454	
 -0.628547	
 -0.653923	
 -0.689488	
 -0.684298	
 -0.699486	
 -0.714675	
 -0.709486	
 -0.668637	
 -0.637977	
 -0.617505	
 -0.617412	
 -0.591848	
 -0.561188	
 -0.510152	
 -0.489682	
 -0.479401	
 -0.499686	
 -0.555633	
 -0.616673	
 -0.636960	
 -0.682718	
 -0.738665	
 -0.753857	
 -0.718106	
 -0.702733	
 -0.733209	
 -0.733120	
 -0.753409	
 -0.814452	
 -0.895873	
 -0.987482	
 -0.972111	
 -0.982212	
 -1.053445	
 -1.150150	
 -1.231572	
 -1.231485	
 -1.282342	
 -1.429992	
 -1.603113	
 -1.653971	
 -1.587658	
 -1.521346	
 -1.485600	
 -1.460043	
 -1.454864	
 -1.485346	
 -1.469978	
 -1.449516	
 -1.398489	
 -1.388217	
 -1.357567	
 -1.270880	
 -1.102683	
 -0.909016	
 -0.725536	
 -0.593001	
 -0.450277	
 -0.251516	
 -0.073132	
 0.125629	
 0.375333	
 0.574094	
 0.691344	
 0.732179	
 0.757731	
 0.717056	
 0.635626	
 0.523629	
 0.437104	
 0.320013	
 0.223298	
 0.126584	
 0.045152	
 0.004475	
 -0.051485	
 -0.107446	
 -0.143030	
 -0.178613	
 -0.234575	
 -0.326197	
 -0.407631	
 -0.514537	
 -0.539932	
 -0.570423	
 -0.606009	
 -0.626312	
 -0.636426	
 -0.636352	
 -0.641372	
 -0.636204	
 -0.585188	
 -0.534170	
 -0.513720	
 -0.477986	
 -0.488103	
 -0.498220	
 -0.528714	
 -0.533736	
 -0.564230	
 -0.574348	
 -0.609937	
 -0.665904	
 -0.686212	
 -0.691235	
 -0.701354	
 -0.686002	
 -0.629894	
 -0.568692	
 -0.578812	
 -0.578743	
 -0.588863	
 -0.624455	
 -0.578538	
 -0.573376	
 -0.588592	
 -0.634373	
 -0.664872	
 -0.695371	
 -0.710588	
 -0.730899	
 -0.715550	
 -0.679824	
 -0.669570	
 -0.664410	
 -0.613402	
 -0.608242	
 -0.603083	
 -0.577547	
 -0.577483	
 -0.607985	
 -0.638487	
 -0.648613	
 -0.684211	
 -0.668865	
 -0.678990	
 -0.689117	
 -0.699244	
 -0.704276	
 -0.688931	
 -0.699059	
 -0.648054	
 -0.627616	
 -0.612272	
 -0.617306	
 -0.607057	
 -0.617186	
 -0.617126	
 -0.632350	
 -0.657763	
 -0.698459	
 -0.672928	
 -0.688153	
 -0.693189	
 -0.703320	
 -0.718545	
 -0.718488	
 -0.692959	
 -0.692902	
 -0.677562	
 -0.657129	
 -0.621412	
 -0.570413	
 -0.585640	
 -0.616151	
 -0.641567	
 -0.666985	
 -0.692401	
 -0.692346	
 -0.671915	
 -0.676955	
 -0.641242	
 -0.615716	
 -0.646229	
 -0.656365	
 -0.666502	
 -0.646071	
 -0.640925	
 -0.635778	
 -0.615349	
 -0.625487	
 -0.645813	
 -0.655951	
 -0.676277	
 -0.640567	
 -0.665988	
 -0.676127	
 -0.665889	
 -0.681122	
 -0.670884	
 -0.645363	
 -0.614749	
 -0.640172	
 -0.650313	
 -0.660453	
 -0.604367	
 -0.558471	
 -0.563518	
 -0.543094	
 -0.583802	
 -0.634698	
 -0.660124	
 -0.660078	
 -0.649845	
 -0.659987	
 -0.680320	
 -0.659897	
 -0.639475	
 -0.629242	
 -0.654670	
 -0.685192	
 -0.680054	
 -0.623972	
 -0.608646	
 -0.613697	
 -0.628938	
 -0.644178	
 -0.679797	
 -0.669566	
 -0.679713	
 -0.689860	
 -0.715290	
 -0.720343	
 -0.684643	
 -0.664225	
 -0.679468	
 -0.709994	
 -0.699765	
 -0.689537	
 -0.628366	
 -0.607950	
 -0.587533	
 -0.592589	
 -0.633305	
 -0.638362	
 -0.648513	
 -0.653570	
 -0.719759	
 -0.714628	
 -0.668742	
 -0.643233	
 -0.638103	
 -0.627878	
 -0.643126	
 -0.637996	
 -0.622678	
 -0.602265	
 -0.607325	
 -0.622574	
 -0.658199	
 -0.658165	
 -0.658132	
 -0.668287	
 -0.673348	
 -0.683504	
 -0.698754	
 -0.698722	
 -0.673217	
 -0.642619	
 -0.622211	
 -0.632367	
 -0.637431	
 -0.642494	
 -0.601708	
 -0.576207	
 -0.622025	
 -0.672938	
 -0.698381	
 -0.723823	
 -0.713605	
 -0.703387	
 -0.693170	
 -0.688046	
 -0.738962	
 -0.713462	
 -0.657396	
 -0.631897	
 -0.606399	
 -0.585994	
 -0.591062	
 -0.636884	
 -0.626669	
 -0.641926	
 -0.657183	
 -0.667347	
 -0.718265	
 -0.748807	
 -0.738593	
 -0.723285	
 -0.697789	
 -0.657010	
 -0.616231	
 -0.611114	
 -0.621279	
 -0.636539	
 -0.641611	
 -0.667060	
 -0.687415	
 -0.697582	
 -0.723032	
 -0.733200	
 -0.748461	
 -0.748440	
 -0.682193	
 -0.682172	
 -0.702529	
 -0.717792	
 -0.677018	
 -0.641337	
 -0.646413	
 -0.631110	
 -0.595431	
 -0.610696	
 -0.620867	
 -0.615754	
 -0.625925	
 -0.656473	
 -0.666645	
 -0.666628	
 -0.630950	
 -0.605463	
 -0.610540	
 -0.595241	
 -0.549377	
 -0.523889	
 -0.539157	
 -0.554425	
 -0.559504	
 -0.559490	
 -0.539098	
 -0.518707	
 -0.518694	
 -0.533963	
 -0.533950	
 -0.544125	
 -0.554301	
 -0.528816	
 -0.528804	
 -0.549170	
 -0.574630	
 -0.574619	
 -0.538947	
 -0.498181	
 -0.457415	
 -0.447216	
 -0.447206	
 -0.426818	
 -0.416620	
 -0.447177	
 -0.462450	
 -0.457346	
 -0.457338	
 -0.487896	
 -0.523548	
 -0.543917	
 -0.528626	
 -0.498052	
 -0.457290	
 -0.385962	
 -0.380861	
 -0.416516	
 -0.436887	
 -0.385937	
 -0.365554	
 -0.355359	
 -0.345166	
 -0.345161	
 -0.365533	
 -0.416473	
 -0.431751	
 -0.426652	
 -0.457215	
 -0.457211	
 -0.441925	
 -0.406262	
 -0.380787	
 -0.375691	
 -0.385876	
 -0.396063	
 -0.370589	
 -0.370588	
 -0.375682	
 -0.390964	
 -0.416435	
 -0.452094	
 -0.477566	
 -0.472471	
 -0.457188	
 -0.497944	
 -0.553982	
 -0.533606	
 -0.492853	
 -0.426627	
 -0.390969	
 -0.396065	
 -0.441916	
 -0.467391	
 -0.452110	
 -0.441924	
 -0.447022	
 -0.426648	
 -0.436841	
 -0.452128	
 -0.441943	
 -0.467419	
 -0.472518	
 -0.503090	
 -0.503095	
 -0.472534	
 -0.467445	
 -0.462357	
 -0.467458	
 -0.452181	
 -0.452188	
 -0.503139	
 -0.559183	
 -0.584663	
 -0.579576	
 -0.594867	
 -0.605065	
 -0.584695	
 -0.599987	
 -0.584713	
 -0.559250	
 -0.538882	
 -0.528703	
 -0.528713	
 -0.498157	
 -0.477791	
 -0.472707	
 -0.508378	
 -0.554239	
 -0.579722	
 -0.615394	
 -0.635784	
 -0.635796	
 -0.681658	
 -0.691859	
 -0.676589	
 -0.656225	
 -0.651144	
 -0.610403	
 -0.569662	
 -0.559487	
 -0.549313	
 -0.574800	
 -0.579909	
 -0.579924	
 -0.574846	
 -0.625805	
 -0.661481	
 -0.686969	
 -0.681891	
 -0.636059	
 -0.625887	
 -0.595338	
 -0.605545	
 -0.615750	
 -0.610674	
 -0.615787	
 -0.590334	
 -0.585258	
 -0.595466	
 -0.605674	
 -0.590410	
 -0.620996	
 -0.651582	
 -0.651602	
 -0.682189	
 -0.702586	
 -0.702607	
 -0.677158	
 -0.656801	
 -0.651729	
 -0.651751	
 -0.646679	
 -0.641607	
 -0.636535	
 -0.641652	
 -0.606015	
 -0.575473	
 -0.570402	
 -0.600992	
 -0.616299	
 -0.621418	
 -0.687669	
 -0.713166	
 -0.703002	
 -0.708123	
 -0.713242	
 -0.718362	
 -0.652163	
 -0.621623	
 -0.580895	
 -0.580922	
 -0.616609	
 -0.626825	
 -0.647231	
 -0.662542	
 -0.682947	
 -0.677882	
 -0.677910	
 -0.688127	
 -0.662686	
 -0.657620	
 -0.642367	
 -0.642397	
 -0.632238	
 -0.622080	
 -0.637394	
 -0.622142	
 -0.586512	
 -0.576356	
 -0.627330	
 -0.622268	
 -0.576452	
 -0.601955	
 -0.622366	
 -0.652965	
 -0.632620	
 -0.637748	
 -0.658159	
 -0.663288	
 -0.678605	
 -0.632790	
 -0.597164	
 -0.602293	
 -0.622706	
 -0.648214	
 -0.612589	
 -0.607531	
 -0.597378	
 -0.612697	
 -0.612734	
 -0.582205	
 -0.607714	
 -0.587373	
 -0.572128	
 -0.597638	
 -0.618053	
 -0.638470	
 -0.633413	
 -0.562131	
 -0.536700	
 -0.562210	
 -0.587722	
 -0.562290	
 -0.562330	
 -0.541993	
 -0.557317	
 -0.567547	
 -0.613437	
 -0.633855	
 -0.628803	
 -0.674694	
 -0.669642	
 -0.690062	
 -0.710482	
 -0.669770	
 -0.649436	
 -0.603630	
 -0.608769	
 -0.573151	
 -0.542630	
 -0.522297	
 -0.547813	
 -0.588613	
 -0.603941	
 -0.634552	
 -0.649882	
 -0.644833	
 -0.660162	
 -0.650020	
 -0.644972	
 -0.624642	
 -0.624689	
 -0.650208	
 -0.629878	
 -0.635020	
 -0.589219	
 -0.599457	
 -0.594411	
 -0.594460	
 -0.614886	
 -0.635313	
 -0.650646	
 -0.625224	
 -0.615085	
 -0.666080	
 -0.701790	
 -0.655992	
 -0.605099	
 -0.579680	
 -0.589919	
 -0.564499	
 -0.584929	
 -0.569699	
 -0.595223	
 -0.564709	
 -0.564762	
 -0.615760	
 -0.626002	
 -0.610773	
 -0.564977	
 -0.575221	
 -0.600747	
 -0.621179	
 -0.605951	
 -0.595819	
 -0.626440	
 -0.601024	
 -0.601080	
 -0.570571	
 -0.580816	
 -0.616533	
 -0.611496	
 -0.606459	
 -0.596328	
 -0.601480	
 -0.601538	
 -0.576124	
 -0.576183	
 -0.601714	
 -0.647622	
 -0.647681	
 -0.642647	
 -0.627424	
 -0.612201	
 -0.612261	
 -0.581756	
 -0.607288	
 -0.597161	
 -0.587033	
 -0.607472	
 -0.617722	
 -0.643256	
 -0.678979	
 -0.643381	
 -0.628161	
 -0.623129	
 -0.623192	
 -0.613068	
 -0.597849	
 -0.546969	
 -0.557222	
 -0.542004	
 -0.557352	
 -0.567605	
 -0.577859	
 -0.613585	
 -0.608556	
 -0.613717	
 -0.583217	
 -0.583284	
 -0.644483	
 -0.649644	
 -0.670089	
 -0.690534	
 -0.660035	
 -0.644820	
 -0.629606	
 -0.604202	
 -0.558422	
 -0.558491	
 -0.533088	
 -0.543347	
 -0.589265	
 -0.609712	
 -0.604689	
 -0.609853	
 -0.620113	
 -0.615090	
 -0.579500	
 -0.594855	
 -0.579643	
 -0.533866	
 -0.528845	
 -0.534011	
 -0.574839	
 -0.585101	
 -0.590268	
 -0.600530	
 -0.646453	
 -0.692376	
 -0.641506	
 -0.667053	
 -0.667127	
 -0.651919	
 -0.651995	
 -0.616410	
 -0.626674	
 -0.626750	
 -0.606449	
 -0.601431	
 -0.601508	
 -0.591396	
 -0.571095	
 -0.576267	
 -0.576345	
 -0.601895	
 -0.617256	
 -0.652994	
 -0.678545	
 -0.673530	
 -0.673609	
 -0.668594	
 -0.653390	
 -0.577055	
 -0.536380	
 -0.582310	
 -0.567107	
 -0.536622	
 -0.536703	
 -0.587729	
 -0.587810	
 -0.618458	
 -0.638917	
 -0.623716	
 -0.608516	
 -0.613693	
 -0.639248	
 -0.669897	
 -0.675076	
 -0.680254	
 -0.659961	
 -0.634573	
 -0.609186	
 -0.568516	
 -0.548224	
 -0.538120	
 -0.563677	
 -0.599423	
 -0.635170	
 -0.650540	
 -0.630248	
 -0.620147	
 -0.610045	
 -0.620321	
 -0.656069	
 -0.651063	
 -0.661340	
 -0.595201	
 -0.569817	
 -0.569906	
 -0.585278	
 -0.636311	
 -0.666967	
 -0.718000	
 -0.672241	
 -0.657048	
 -0.667327	
 -0.672512	
 -0.672603	
 -0.677789	
 -0.693164	
 -0.672877	
 -0.662781	
 -0.652684	
 -0.617116	
 -0.556077	
 -0.540886	
 -0.546074	
 -0.551262	
 -0.571733	
 -0.571827	
 -0.582110	
 -0.617864	
 -0.643431	
 -0.653715	
 -0.643621	
 -0.643716	
 -0.633623	
 -0.613342	
 -0.628721	
 -0.598251	
 -0.593254	
 -0.567879	
 -0.557787	
 -0.542601	
 -0.527416	
 -0.547891	
 -0.542895	
 -0.578653	
 -0.619507	
 -0.639984	
 -0.691026	
 -0.721691	
 -0.691224	
 -0.686230	
 -0.665953	
 -0.635487	
 -0.599927	
 -0.600028	
 -0.605223	
 -0.595136	
 -0.549388	
 -0.529112	
 -0.569970	
 -0.585355	
 -0.600740	
 -0.616126	
 -0.621323	
 -0.621426	
 -0.626625	
 -0.662388	
 -0.657398	
 -0.637125	
 -0.616852	
 -0.601674	
 -0.571213	
 -0.540752	
 -0.551045	
 -0.566434	
 -0.581823	
 -0.607401	
 -0.592224	
 -0.597426	
 -0.638287	
 -0.663866	
 -0.658879	
 -0.689553	
 -0.730416	
 -0.730524	
 -0.710254	
 -0.639042	
 -0.603491	
 -0.583222	
 -0.542577	
 -0.547781	
 -0.552985	
 -0.563284	
 -0.548111	
 -0.568599	
 -0.634936	
 -0.650331	
 -0.665725	
 -0.650553	
 -0.640476	
 -0.676249	
 -0.712021	
 -0.717229	
 -0.661304	
 -0.651228	
 -0.620775	
 -0.585227	
 -0.610813	
 -0.626210	
 -0.616136	
 -0.631534	
 -0.677497	
 -0.667423	
 -0.677728	
 -0.672749	
 -0.657581	
 -0.678075	
 -0.678191	
 -0.663024	
 -0.663141	
 -0.653069	
 -0.683752	
 -0.673681	
 -0.683987	
 -0.694294	
 -0.648563	
 -0.623209	
 -0.633517	
 -0.694767	
 -0.740736	
 -0.725572	
 -0.700219	
 -0.669773	
 -0.654610	
 -0.670014	
 -0.649757	
 -0.609123	
 -0.593961	
 -0.629742	
 -0.629864	
 -0.624891	
 -0.675957	
 -0.691363	
 -0.660918	
 -0.650853	
 -0.696825	
 -0.671476	
 -0.676694	
 -0.676818	
 -0.661658	
 -0.646499	
 -0.656812	
 -0.656937	
 -0.636685	
 -0.652093	
 -0.606370	
 -0.596306	
 -0.611715	
 -0.632218	
 -0.622156	
 -0.571339	
 -0.561277	
 -0.571593	
 -0.592097	
 -0.597320	
 -0.556693	
 -0.536444	
 -0.546760	
 -0.582549	
 -0.562300	
 -0.582807	
 -0.572747	
 -0.552500	
 -0.501686	
 -0.461061	
 -0.507040	
 -0.522454	
 -0.537868	
 -0.548187	
 -0.553413	
 -0.573921	
 -0.589336	
 -0.604751	
 -0.635449	
 -0.635582	
 -0.610243	
 -0.610376	
 -0.600320	
 -0.564792	
 -0.534360	
 -0.585438	
 -0.555006	
 -0.560234	
 -0.570558	
 -0.601259	
 -0.637054	
 -0.627001	
 -0.642419	
 -0.668026	
 -0.708917	
 -0.653015	
 -0.617492	
 -0.602346	
 -0.607576	
 -0.612809	
 -0.587474	
 -0.577423	
 -0.597938	
 -0.592982	
 -0.598214	
 -0.608542	
 -0.634153	
 -0.664858	
 -0.644620	
 -0.639665	
 -0.670371	
 -0.680700	
 -0.670651	
 -0.650415	
 -0.665838	
 -0.635413	
 -0.589706	
 -0.569469	
 -0.600177	
 -0.595225	
 -0.580084	
 -0.575133	
 -0.590558	
 -0.605984	
 -0.626505	
 -0.652120	
 -0.667547	
 -0.657502	
 -0.672929	
 -0.703640	
 -0.759822	
 -0.698835	
 -0.622565	
 -0.632899	
 -0.592290	
 -0.541492	
 -0.505978	
 -0.531596	
 -0.516458	
 -0.542077	
 -0.577885	
 -0.608598	
 -0.603651	
 -0.619083	
 -0.649797	
 -0.660133	
 -0.619527	
 -0.614581	
 -0.604541	
 -0.584313	
 -0.589557	
 -0.625367	
 -0.681555	
 -0.676610	
 -0.707328	
 -0.707478	
 -0.753478	
 -0.824950	
 -0.916799	
 -0.998461	
 -1.003707	
 -1.049708	
 -1.080426	
 -1.131523	
 -1.218279	
 -1.238809	
 -1.279718	
 -1.315532	
 -1.351346	
 -1.387161	
 -1.443353	
 -1.550488	
 -1.637247	
 -1.662874	
 -1.591708	
 -1.535825	
 -1.525792	
 -1.469910	
 -1.434406	
 -1.409090	
 -1.348115	
 -1.231101	
 -1.134465	
 -1.007264	
 -0.895345	
 -0.752861	
 -0.595094	
 -0.483177	
 -0.350882	
 -0.223682	
 -0.076104	
 0.086756	
 0.244521	
 0.346249	
 0.447976	
 0.534420	
 0.575014	
 0.590137	
 0.569599	
 0.467551	
 0.360408	
 0.304208	
 0.258197	
 0.217280	
 0.110137	
 -0.002101	
 -0.099057	
 -0.185824	
 -0.333723	
 -0.435774	
 -0.512352	
 -0.543083	
 -0.533058	
 -0.594355	
 -0.594519	
 -0.533552	
 -0.549000	
 -0.574637	
 -0.559520	
 -0.544403	
 -0.564946	
 -0.595678	
 -0.631506	
 -0.641860	
 -0.677688	
 -0.693138	
 -0.708589	
 -0.713851	
 -0.703830	
 -0.698904	
 -0.693978	
 -0.668675	
 -0.658654	
 -0.623163	
 -0.658993	
 -0.694823	
 -0.674615	
 -0.664597	
 -0.624012	
 -0.583428	
 -0.553033	
 -0.604147	
 -0.629790	
 -0.675810	
 -0.670888	
 -0.696532	
 -0.722176	
 -0.737631	
 -0.707238	
 -0.671750	
 -0.656640	
 -0.631341	
 -0.641704	
 -0.621499	
 -0.626768	
 -0.632037	
 -0.703532	
 -0.749556	
 -0.714071	
 -0.734623	
 -0.780647	
 -0.801201	
 -0.775905	
 -0.760798	
 -0.735502	
 -0.720396	
 -0.679818	
 -0.623957	
 -0.603757	
 -0.670162	
 -0.690716	
 -0.670517	
 -0.629941	
 -0.635213	
 -0.711808	
 -0.732364	
 -0.701977	
 -0.651212	
 -0.661581	
 -0.656667	
 -0.692507	
 -0.672310	
 -0.667396	
 -0.698142	
 -0.728890	
 -0.723977	
 -0.698686	
 -0.693774	
 -0.688862	
 -0.704327	
 -0.689226	
 -0.674126	
 -0.689592	
 -0.705058	
 -0.710335	
 -0.730897	
 -0.725986	
 -0.690510	
 -0.639750	
 -0.639935	
 -0.680874	
 -0.696342	
 -0.721999	
 -0.701807	
 -0.707088	
 -0.712368	
 -0.732932	
 -0.722929	
 -0.738399	
 -0.733491	
 -0.743866	
 -0.764432	
 -0.784996	
 -0.795373	
 -0.764995	
 -0.734617	
 -0.704239	
 -0.684050	
 -0.638390	
 -0.653862	
 -0.623486	
 -0.633863	
 -0.644242	
 -0.659715	
 -0.639529	
 -0.649908	
 -0.675570	
 -0.685950	
 -0.686141	
 -0.696522	
 -0.737468	
 -0.722377	
 -0.702191	
 -0.676912	
 -0.672010	
 -0.682392	
 -0.692773	
 -0.698062	
 -0.667689	
 -0.678071	
 -0.713926	
 -0.729403	
 -0.744881	
 -0.770547	
 -0.791119	
 -0.837163	
 -0.816982	
 -0.781516	
 -0.740958	
 -0.705493	
 -0.751539	
 -0.792490	
 -0.751932	
 -0.752129	
 -0.767609	
 -0.752524	
 -0.778193	
 -0.747825	
 -0.727646	
 -0.722750	
 -0.722948	
 -0.743525	
 -0.713157	
 -0.698073	
 -0.677896	
 -0.673002	
 -0.683390	
 -0.678496	
 -0.658319	
 -0.673803	
 -0.663815	
 -0.623261	
 -0.643839	
 -0.674608	
 -0.705376	
 -0.741238	
 -0.746535	
 -0.731454	
 -0.721468	
 -0.731860	
 -0.742251	
 -0.722078	
 -0.686620	
 -0.691919	
 -0.702311	
 -0.722894	
 -0.687437	
 -0.687642	
 -0.672564	
 -0.677864	
 -0.693353	
 -0.734313	
 -0.739613	
 -0.750008	
 -0.785875	
 -0.842119	
 -0.852515	
 -0.837439	
 -0.801985	
 -0.756344	
 -0.725986	
 -0.721099	
 -0.685647	
 -0.660383	
 -0.680970	
 -0.681179	
 -0.691576	
 -0.722351	
 -0.737845	
 -0.753337	
 -0.753547	
 -0.753758	
 -0.743779	
 -0.769462	
 -0.774767	
 -0.739318	
 -0.734434	
 -0.795778	
 -0.801085	
 -0.806391	
 -0.765848	
 -0.755872	
 -0.766273	
 -0.781769	
 -0.817643	
 -0.853517	
 -0.858825	
 -0.838661	
 -0.833781	
 -0.777958	
 -0.762889	
 -0.747821	
 -0.737847	
 -0.712590	
 -0.682239	
 -0.692644	
 -0.697954	
 -0.698170	
 -0.698386	
 -0.718981	
 -0.749764	
 -0.765264	
 -0.801141	
 -0.786076	
 -0.771010	
 -0.735568	
 -0.715408	
 -0.720722	
 -0.654713	
 -0.649838	
 -0.639868	
 -0.619710	
 -0.660684	
 -0.640526	
 -0.640746	
 -0.656250	
 -0.717602	
 -0.748390	
 -0.768987	
 -0.733547	
 -0.693015	
 -0.693236	
 -0.724024	
 -0.739529	
 -0.673524	
 -0.617709	
 -0.612837	
 -0.618154	
 -0.613283	
 -0.618600	
 -0.603541	
 -0.583388	
 -0.583612	
 -0.604213	
 -0.604437	
 -0.630134	
 -0.625265	
 -0.615301	
 -0.600243	
 -0.569903	
 -0.580316	
 -0.585637	
 -0.545109	
 -0.530052	
 -0.484430	
 -0.489750	
 -0.495072	
 -0.505488	
 -0.505715	
 -0.500849	
 -0.511265	
 -0.496210	
 -0.465873	
 -0.481384	
 -0.507085	
 -0.537880	
 -0.538110	
 -0.548528	
 -0.543664	
 -0.528611	
 -0.528841	
 -0.498505	
 -0.508924	
 -0.529533	
 -0.550141	
 -0.545279	
 -0.565887	
 -0.586496	
 -0.596917	
 -0.597149	
 -0.577004	
 -0.572142	
 -0.572375	
 -0.557325	
 -0.547370	
 -0.527226	
 -0.542743	
 -0.527694	
 -0.492268	
 -0.472124	
 -0.492737	
 -0.523538	
 -0.544150	
 -0.554574	
 -0.580282	
 -0.565234	
 -0.570564	
 -0.580989	
 -0.581226	
 -0.581462	
 -0.571510	
 -0.561558	
 -0.561796	
 -0.546750	
 -0.572460	
 -0.582887	
 -0.578030	
 -0.593551	
 -0.593790	
 -0.599124	
 -0.609552	
 -0.609791	
 -0.620218	
 -0.620458	
 -0.656359	
 -0.676976	
 -0.631367	
 -0.636702	
 -0.642038	
 -0.662656	
 -0.647614	
 -0.642762	
 -0.648097	
 -0.627962	
 -0.618015	
 -0.618258	
 -0.643972	
 -0.654403	
 -0.649552	
 -0.665078	
 -0.690793	
 -0.787830	
 -0.803357	
 -0.788318	
 -0.757995	
 -0.732769	
 -0.702447	
 -0.646654	
 -0.636711	
 -0.642050	
 -0.606636	
 -0.617070	
 -0.642787	
 -0.678695	
 -0.684035	
 -0.704660	
 -0.699812	
 -0.694965	
 -0.741061	
 -0.771875	
 -0.772122	
 -0.721427	
 -0.721676	
 -0.727018	
 -0.655946	
 -0.646006	
 -0.636067	
 -0.651599	
 -0.672225	
 -0.723419	
 -0.733857	
 -0.734107	
 -0.754736	
 -0.790646	
 -0.806180	
 -0.796243	
 -0.816871	
 -0.806934	
 -0.771525	
 -0.736116	
 -0.700708	
 -0.700961	
 -0.752156	
 -0.772787	
 -0.762851	
 -0.696877	
 -0.732791	
 -0.773800	
 -0.784243	
 -0.764119	
 -0.764373	
 -0.795194	
 -0.780165	
 -0.795703	
 -0.801053	
 -0.750365	
 -0.765903	
 -0.781442	
 -0.746038	
 -0.715728	
 -0.710890	
 -0.731524	
 -0.741969	
 -0.762604	
 -0.793427	
 -0.834440	
 -0.860168	
 -0.845143	
 -0.840308	
 -0.840566	
 -0.856107	
 -0.815611	
 -0.795493	
 -0.790658	
 -0.739974	
 -0.724950	
 -0.735399	
 -0.740753	
 -0.741013	
 -0.756557	
 -0.777195	
 -0.757079	
 -0.736963	
 -0.762695	
 -0.752768	
 -0.753030	
 -0.753292	
 -0.763742	
 -0.764005	
 -0.723513	
 -0.728870	
 -0.749510	
 -0.785434	
 -0.744943	
 -0.750301	
 -0.709809	
 -0.750829	
 -0.766376	
 -0.761546	
 -0.782188	
 -0.792642	
 -0.813285	
 -0.833928	
 -0.824004	
 -0.829365	
 -0.793970	
 -0.824802	
 -0.825069	
 -0.784580	
 -0.744093	
 -0.734171	
 -0.775193	
 -0.790744	
 -0.775728	
 -0.775996	
 -0.755886	
 -0.766344	
 -0.797178	
 -0.812730	
 -0.828282	
 -0.833646	
 -0.828821	
 -0.788335	
 -0.742756	
 -0.722649	
 -0.722919	
 -0.738473	
 -0.759120	
 -0.779769	
 -0.815700	
 -0.831254	
 -0.831526	
 -0.841987	
 -0.862635	
 -0.847625	
 -0.832614	
 -0.853264	
 -0.853537	
 -0.813055	
 -0.792950	
 -0.793224	
 -0.783309	
 -0.773394	
 -0.768574	
 -0.789225	
 -0.779311	
 -0.784680	
 -0.800238	
 -0.820890	
 -0.867014	
 -0.852007	
 -0.862471	
 -0.857653	
 -0.863023	
 -0.827640	
 -0.797349	
 -0.777249	
 -0.777526	
 -0.742143	
 -0.737325	
 -0.742698	
 -0.768447	
 -0.763630	
 -0.799569	
 -0.779470	
 -0.769560	
 -0.795310	
 -0.805778	
 -0.826435	
 -0.811431	
 -0.806617	
 -0.781424	
 -0.766421	
 -0.776891	
 -0.746605	
 -0.731602	
 -0.731883	
 -0.752542	
 -0.773200	
 -0.793859	
 -0.814518	
 -0.830083	
 -0.845648	
 -0.871402	
 -0.856402	
 -0.866874	
 -0.862062	
 -0.877628	
 -0.893194	
 -0.857818	
 -0.807157	
 -0.756498	
 -0.746593	
 -0.757067	
 -0.798106	
 -0.793296	
 -0.783393	
 -0.783678	
 -0.758492	
 -0.794437	
 -0.779440	
 -0.795009	
 -0.815673	
 -0.815960	
 -0.780585	
 -0.775778	
 -0.806631	
 -0.796729	
 -0.761357	
 -0.710700	
 -0.716083	
 -0.721465	
 -0.747226	
 -0.788269	
 -0.803841	
 -0.814318	
 -0.840079	
 -0.860746	
 -0.840657	
 -0.820570	
 -0.836143	
 -0.826244	
 -0.801062	
 -0.796259	
 -0.776173	
 -0.756086	
 -0.746188	
 -0.741385	
 -0.746770	
 -0.762346	
 -0.777921	
 -0.783307	
 -0.819260	
 -0.839930	
 -0.835129	
 -0.835422	
 -0.845903	
 -0.851291	
 -0.826113	
 -0.811123	
 -0.785945	
 -0.750579	
 -0.745779	
 -0.740980	
 -0.751462	
 -0.751757	
 -0.762241	
 -0.798198	
 -0.793398	
 -0.793694	
 -0.814368	
 -0.835041	
 -0.814961	
 -0.799974	
 -0.790082	
 -0.790379	
 -0.775393	
 -0.775690	
 -0.791271	
 -0.791569	
 -0.786773	
 -0.766693	
 -0.772086	
 -0.787668	
 -0.803250	
 -0.829020	
 -0.819131	
 -0.809241	
 -0.819730	
 -0.820030	
 -0.866179	
 -0.835913	
 -0.790364	
 -0.770287	
 -0.765493	
 -0.781077	
 -0.801756	
 -0.791869	
 -0.781982	
 -0.817943	
 -0.823340	
 -0.803265	
 -0.829039	
 -0.854813	
 -0.850022	
 -0.845230	
 -0.840439	
 -0.840743	
 -0.815574	
 -0.800595	
 -0.780522	
 -0.775731	
 -0.801508	
 -0.806906	
 -0.802117	
 -0.827894	
 -0.853671	
 -0.828504	
 -0.823715	
 -0.829116	
 -0.814139	
 -0.809350	
 -0.809656	
 -0.809963	
 -0.805175	
 -0.769821	
 -0.759940	
 -0.770436	
 -0.786027	
 -0.781240	
 -0.776454	
 -0.797139	
 -0.822919	
 -0.833417	
 -0.833726	
 -0.834035	
 -0.890382	
 -0.860125	
 -0.855339	
 -0.860744	
 -0.886525	
 -0.876647	
 -0.831107	
 -0.821230	
 -0.811351	
 -0.796379	
 -0.781407	
 -0.817379	
 -0.787124	
 -0.782342	
 -0.818314	
 -0.839004	
 -0.839316	
 -0.834533	
 -0.819563	
 -0.814782	
 -0.820189	
 -0.820502	
 -0.800438	
 -0.790563	
 -0.760311	
 -0.770814	
 -0.776222	
 -0.766347	
 -0.797229	
 -0.792449	
 -0.828425	
 -0.838928	
 -0.844338	
 -0.859937	
 -0.865346	
 -0.865662	
 -0.855790	
 -0.866295	
 -0.866611	
 -0.826173	
 -0.801019	
 -0.770769	
 -0.745615	
 -0.751027	
 -0.797193	
 -0.838266	
 -0.869150	
 -0.905130	
 -0.905448	
 -0.880295	
 -0.870425	
 -0.850367	
 -0.804837	
 -0.794967	
 -0.810570	
 -0.810890	
 -0.775549	
 -0.760586	
 -0.760906	
 -0.761227	
 -0.797208	
 -0.863755	
 -0.843699	
 -0.823644	
 -0.854531	
 -0.890513	
 -0.885741	
 -0.850402	
 -0.850724	
 -0.851047	
 -0.851369	
 -0.836409	
 -0.811261	
 -0.796301	
 -0.786436	
 -0.776571	
 -0.781988	
 -0.787407	
 -0.808109	
 -0.823716	
 -0.859702	
 -0.885498	
 -0.916389	
 -0.901431	
 -0.876285	
 -0.881704	
 -0.887125	
 -0.872167	
 -0.887777	
 -0.872819	
 -0.847675	
 -0.807246	
 -0.812667	
 -0.812994	
 -0.787849	
 -0.793272	
 -0.803788	
 -0.834682	
 -0.850293	
 -0.886281	
 -0.901893	
 -0.922599	
 -0.882173	
 -0.841747	
 -0.842076	
 -0.842405	
 -0.832546	
 -0.827782	
 -0.848488	
 -0.853913	
 -0.859338	
 -0.849479	
 -0.839622	
 -0.860330	
 -0.891227	
 -0.871181	
 -0.886795	
 -0.912599	
 -0.938401	
 -0.933639	
 -0.923782	
 -0.964870	
 -0.965202	
 -0.914592	
 -0.869075	
 -0.864314	
 -0.885024	
 -0.890452	
 -0.875503	
 -0.855459	
 -0.876171	
 -0.932543	
 -0.953254	
 -0.963778	
 -0.938641	
 -0.949164	
 -0.944405	
 -0.939646	
 -0.929792	
 -0.909751	
 -0.894804	
 -0.864574	
 -0.875098	
 -0.849963	
 -0.840111	
 -0.865920	
 -0.891728	
 -0.968481	
 -0.948440	
 -0.958967	
 -0.959304	
 -0.918887	
 -0.898848	
 -0.919563	
 -0.924997	
 -0.889674	
 -0.884919	
 -0.905635	
 -0.885597	
 -0.834993	
 -0.794577	
 -0.764351	
 -0.774880	
 -0.800692	
 -0.857070	
 -0.867599	
 -0.867939	
 -0.858092	
 -0.868621	
 -0.874057	
 -0.864209	
 -0.869645	
 -0.869987	
 -0.860141	
 -0.840105	
 -0.820070	
 -0.820412	
 -0.780000	
 -0.765060	
 -0.729742	
 -0.730085	
 -0.750806	
 -0.766433	
 -0.771871	
 -0.787498	
 -0.792937	
 -0.788186	
 -0.788530	
 -0.799064	
 -0.768843	
 -0.769188	
 -0.774627	
 -0.790255	
 -0.800790	
 -0.785852	
 -0.796387	
 -0.817110	
 -0.822551	
 -0.807614	
 -0.818150	
 -0.843969	
 -0.823938	
 -0.844663	
 -0.875576	
 -0.860641	
 -0.835516	
 -0.830770	
 -0.826023	
 -0.831466	
 -0.811437	
 -0.791408	
 -0.801946	
 -0.822672	
 -0.853587	
 -0.864126	
 -0.905230	
 -0.900485	
 -0.911023	
 -0.926657	
 -0.901535	
 -0.901885	
 -0.932803	
 -0.907681	
 -0.892749	
 -0.903288	
 -0.888357	
 -0.837765	
 -0.827928	
 -0.863941	
 -0.859197	
 -0.869739	
 -0.880280	
 -0.860254	
 -0.840230	
 -0.881338	
 -0.912257	
 -0.912610	
 -0.887492	
 -0.882751	
 -0.862727	
 -0.847798	
 -0.832869	
 -0.812846	
 -0.853955	
 -0.895064	
 -0.885231	
 -0.855019	
 -0.885941	
 -0.906674	
 -0.912123	
 -0.907385	
 -0.882269	
 -0.877531	
 -0.888076	
 -0.898620	
 -0.898977	
 -0.889146	
 -0.894597	
 -0.894954	
 -0.874934	
 -0.860007	
 -0.875649	
 -0.870912	
 -0.866176	
 -0.861439	
 -0.877081	
 -0.897817	
 -0.928741	
 -0.939289	
 -0.970214	
 -0.965479	
 -0.965839	
 -0.966198	
 -0.986935	
 -1.007672	
 -1.043693	
 -1.094996	
 -1.161584	
 -1.207793	
 -1.274381	
 -1.356252	
 -1.387179	
 -1.448672	
 -1.525449	
 -1.607320	
 -1.699380	
 -1.765969	
 -1.847841	
 -1.944995	
 -1.970830	
 -2.006854	
 -1.997027	
 -1.946446	
 -1.885677	
 -1.840192	
 -1.809989	
 -1.789975	
 -1.775056	
 -1.749948	
 -1.689180	
 -1.638601	
 -1.465758	
 -1.298009	
 -1.125166	
 -0.937040	
 -0.784574	
 -0.647392	
 -0.510210	
 -0.347556	
 -0.169619	
 0.018506	
 0.206630	
 0.374378	
 0.511558	
 0.551947	
 0.526108	
 0.434043	
 0.311411	
 0.204062	
 0.122184	
 0.025025	
 -0.067042	
 -0.154014	
 -0.251175	
 -0.327959	
 -0.374177	
 -0.461150	
 -0.573595	
 -0.650379	
 -0.691503	
 -0.691872	
 -0.712619	
 -0.753744	
 -0.779586	
 -0.800333	
 -0.831270	
 -0.867301	
 -0.872765	
 -0.878231	
 -0.878602	
 -0.889161	
 -0.874250	
 -0.838961	
 -0.864805	
 -0.860081	
 -0.860453	
 -0.865921	
 -0.896859	
 -0.922703	
 -0.948547	
 -0.954015	
 -0.949293	
 -0.929289	
 -0.909285	
 -0.935130	
 -0.940598	
 -0.951160	
 -0.915874	
 -0.911154	
 -0.952283	
 -0.978129	
 -0.978504	
 -0.943218	
 -0.902838	
 -0.923591	
 -0.954532	
 -0.975285	
 -0.975661	
 -0.945471	
 -0.971318	
 -0.946223	
 -0.946599	
 -0.931692	
 -0.886219	
 -0.866219	
 -0.841124	
 -0.877162	
 -0.903010	
 -0.908483	
 -0.934332	
 -0.929615	
 -0.945276	
 -0.940560	
 -0.996976	
 -0.997355	
 -1.002827	
 -0.993018	
 -0.988302	
 -0.998870	
 -0.973777	
 -0.953780	
 -0.938876	
 -0.923973	
 -0.960013	
 -0.950204	
 -0.950584	
 -0.961153	
 -0.992100	
 -1.023047	
 -1.013239	
 -1.054374	
 -1.059851	
 -1.065326	
 -1.055519	
 -1.035523	
 -1.005339	
 -0.980249	
 -0.950065	
 -0.924975	
 -0.930453	
 -0.920647	
 -0.936312	
 -0.962167	
 -0.962550	
 -0.988405	
 -0.988788	
 -0.999361	
 -1.020122	
 -1.000128	
 -1.000512	
 -1.021275	
 -1.042036	
 -1.027138	
 -1.047899	
 -1.043190	
 -1.023198	
 -0.993016	
 -0.962836	
 -0.973410	
 -0.994173	
 -0.994559	
 -1.005134	
 -1.000426	
 -1.026284	
 -1.041954	
 -1.047434	
 -1.022349	
 -1.022736	
 -1.007840	
 -0.977661	
 -0.962766	
 -1.009002	
 -1.029768	
 -1.040344	
 -1.020355	
 -0.974894	
 -0.954905	
 -0.945105	
 -0.965871	
 -0.991732	
 -1.012498	
 -1.023076	
 -1.033654	
 -1.013666	
 -1.019150	
 -0.983879	
 -0.953703	
 -0.943904	
 -0.939200	
 -0.959968	
 -0.970547	
 -0.955655	
 -0.950952	
 -0.981909	
 -1.017960	
 -1.054012	
 -1.105347	
 -1.126117	
 -1.111225	
 -1.106522	
 -1.086537	
 -1.107307	
 -1.072039	
 -1.067337	
 -1.047352	
 -1.012084	
 -0.987006	
 -0.972117	
 -0.987793	
 -0.993280	
 -1.008957	
 -1.029729	
 -1.025028	
 -1.010139	
 -1.015627	
 -1.072060	
 -1.097926	
 -1.083038	
 -1.047773	
 -1.007413	
 -1.012902	
 -1.013298	
 -1.018787	
 -1.008995	
 -0.989013	
 -1.030163	
 -1.045843	
 -1.102277	
 -1.107767	
 -1.103070	
 -1.093278	
 -1.078391	
 -1.058411	
 -1.028243	
 -1.049017	
 -1.054509	
 -1.014152	
 -1.019644	
 -1.040420	
 -1.030629	
 -1.010649	
 -1.021237	
 -1.047107	
 -1.083166	
 -1.103943	
 -1.094153	
 -1.120024	
 -1.105140	
 -1.080068	
 -1.100844	
 -1.075773	
 -1.065984	
 -1.061290	
 -1.082067	
 -1.102844	
 -1.113434	
 -1.118929	
 -1.088763	
 -1.068787	
 -1.053905	
 -1.059401	
 -1.090368	
 -1.080582	
 -1.065700	
 -1.081385	
 -1.107258	
 -1.107660	
 -1.118251	
 -1.088088	
 -1.047735	
 -1.032855	
 -1.028164	
 -1.038755	
 -1.054442	
 -1.044657	
 -1.050154	
 -1.055653	
 -1.122282	
 -1.153252	
 -1.168939	
 -1.143873	
 -1.113710	
 -1.093738	
 -1.089048	
 -1.120019	
 -1.135707	
 -1.100451	
 -1.075385	
 -1.050319	
 -1.020158	
 -1.015469	
 -1.005687	
 -0.990810	
 -0.996310	
 -1.027282	
 -1.058254	
 -1.079039	
 -1.059068	
 -1.064569	
 -1.049692	
 -1.050100	
 -1.075979	
 -1.040726	
 -1.041134	
 -1.041542	
 -1.026666	
 -1.016885	
 -1.022388	
 -1.022796	
 -1.002827	
 -0.967575	
 -0.957796	
 -0.963298	
 -0.989179	
 -0.999778	
 -1.005281	
 -0.990407	
 -0.995911	
 -1.026887	
 -0.976353	
 -0.936008	
 -0.921136	
 -0.906263	
 -0.937239	
 -0.917273	
 -0.907495	
 -0.892623	
 -0.908317	
 -0.903633	
 -0.898950	
 -0.919739	
 -0.920151	
 -0.935846	
 -0.926069	
 -0.957047	
 -0.931987	
 -0.861078	
 -0.815641	
 -0.780394	
 -0.801184	
 -0.796503	
 -0.766350	
 -0.756574	
 -0.746798	
 -0.772683	
 -0.773097	
 -0.758228	
 -0.763736	
 -0.815094	
 -0.830791	
 -0.846488	
 -0.887657	
 -0.877883	
 -0.883392	
 -0.853240	
 -0.812900	
 -0.808221	
 -0.844297	
 -0.834524	
 -0.829845	
 -0.855732	
 -0.881620	
 -0.851470	
 -0.846791	
 -0.903245	
 -0.924040	
 -0.919361	
 -0.919778	
 -0.915100	
 -0.900234	
 -0.859896	
 -0.834841	
 -0.814882	
 -0.850959	
 -0.871755	
 -0.861984	
 -0.842024	
 -0.842442	
 -0.853049	
 -0.884034	
 -0.909923	
 -0.925625	
 -0.931138	
 -0.941746	
 -0.952353	
 -0.932395	
 -0.912437	
 -0.928139	
 -0.954030	
 -0.964639	
 -0.975248	
 -0.940007	
 -0.955710	
 -0.976508	
 -1.007494	
 -0.972254	
 -0.962486	
 -0.973095	
 -1.019365	
 -1.040164	
 -1.045679	
 -1.051195	
 -1.015956	
 -1.031660	
 -1.001516	
 -0.976466	
 -0.956511	
 -0.962027	
 -0.962449	
 -0.993437	
 -1.039710	
 -1.070698	
 -1.086404	
 -1.097015	
 -1.112722	
 -1.118239	
 -1.133945	
 -1.159841	
 -1.109320	
 -1.068989	
 -1.018470	
 -1.003611	
 -1.014223	
 -1.045214	
 -1.020166	
 -1.025685	
 -1.010826	
 -1.036723	
 -1.088091	
 -1.093611	
 -1.099130	
 -1.119933	
 -1.130547	
 -1.095312	
 -1.111021	
 -1.121636	
 -1.122062	
 -1.132676	
 -1.122914	
 -1.123340	
 -1.103389	
 -1.063060	
 -1.053299	
 -1.069009	
 -1.110190	
 -1.161561	
 -1.136516	
 -1.147132	
 -1.157749	
 -1.158176	
 -1.122943	
 -1.113182	
 -1.108516	
 -1.103850	
 -1.088995	
 -1.079235	
 -1.084757	
 -1.095375	
 -1.075427	
 -1.075855	
 -1.076284	
 -1.112374	
 -1.122992	
 -1.143798	
 -1.164606	
 -1.159940	
 -1.145087	
 -1.176083	
 -1.186702	
 -1.166755	
 -1.146808	
 -1.126861	
 -1.112009	
 -1.112439	
 -1.061926	
 -1.052168	
 -1.052599	
 -1.093785	
 -1.099312	
 -1.120120	
 -1.156213	
 -1.136266	
 -1.131604	
 -1.142225	
 -1.142657	
 -1.107428	
 -1.082389	
 -1.072633	
 -1.078160	
 -1.114253	
 -1.109591	
 -1.079458	
 -1.079891	
 -1.100702	
 -1.126607	
 -1.198361	
 -1.254833	
 -1.270550	
 -1.225134	
 -1.225568	
 -1.195436	
 -1.185682	
 -1.145361	
 -1.120323	
 -1.100381	
 -1.054967	
 -1.040119	
 -1.050741	
 -1.091932	
 -1.112745	
 -1.148840	
 -1.179841	
 -1.180277	
 -1.129770	
 -1.145488	
 -1.161207	
 -1.161643	
 -1.146797	
 -1.131950	
 -1.117103	
 -1.107351	
 -1.072126	
 -1.092941	
 -1.118850	
 -1.109098	
 -1.094252	
 -1.115067	
 -1.156259	
 -1.141413	
 -1.152040	
 -1.162667	
 -1.142727	
 -1.127882	
 -1.128320	
 -1.154230	
 -1.149573	
 -1.134729	
 -1.135167	
 -1.125418	
 -1.146234	
 -1.131390	
 -1.091074	
 -1.071136	
 -1.076669	
 -1.107675	
 -1.123397	
 -1.149309	
 -1.165032	
 -1.160378	
 -1.196478	
 -1.186730	
 -1.176981	
 -1.162139	
 -1.106541	
 -1.086604	
 -1.087044	
 -1.097674	
 -1.087926	
 -1.093462	
 -1.114281	
 -1.135100	
 -1.145729	
 -1.156360	
 -1.172085	
 -1.192904	
 -1.188251	
 -1.153033	
 -1.153475	
 -1.148823	
 -1.123794	
 -1.093670	
 -1.078829	
 -1.074178	
 -1.094998	
 -1.095441	
 -1.106073	
 -1.116705	
 -1.168091	
 -1.163441	
 -1.143507	
 -1.138856	
 -1.139300	
 -1.144838	
 -1.186037	
 -1.171198	
 -1.146171	
 -1.100765	
 -1.085927	
 -1.071088	
 -1.071533	
 -1.092356	
 -1.102989	
 -1.103434	
 -1.098785	
 -1.124702	
 -1.176090	
 -1.176536	
 -1.182076	
 -1.172333	
 -1.213534	
 -1.224169	
 -1.204237	
 -1.189400	
 -1.169469	
 -1.124067	
 -1.124513	
 -1.150431	
 -1.099935	
 -1.085098	
 -1.090639	
 -1.131841	
 -1.162855	
 -1.163302	
 -1.194315	
 -1.230424	
 -1.235965	
 -1.226224	
 -1.206295	
 -1.176177	
 -1.146059	
 -1.131224	
 -1.136766	
 -1.132121	
 -1.142757	
 -1.138112	
 -1.153844	
 -1.174669	
 -1.185307	
 -1.195945	
 -1.196395	
 -1.196844	
 -1.192198	
 -1.218120	
 -1.223664	
 -1.229208	
 -1.219469	
 -1.168976	
 -1.169426	
 -1.149498	
 -1.129571	
 -1.109644	
 -1.120283	
 -1.125828	
 -1.167033	
 -1.142013	
 -1.157747	
 -1.214236	
 -1.250347	
 -1.240609	
 -1.241061	
 -1.256795	
 -1.247059	
 -1.186377	
 -1.135886	
 -1.126149	
 -1.126601	
 -1.127053	
 -1.122411	
 -1.117769	
 -1.128410	
 -1.174712	
 -1.205730	
 -1.221467	
 -1.227014	
 -1.212184	
 -1.207542	
 -1.197807	
 -1.193165	
 -1.188525	
 -1.194072	
 -1.179243	
 -1.128753	
 -1.159773	
 -1.170416	
 -1.160681	
 -1.156041	
 -1.151400	
 -1.156950	
 -1.162498	
 -1.193518	
 -1.224539	
 -1.230089	
 -1.235638	
 -1.205527	
 -1.216170	
 -1.221720	
 -1.222175	
 -1.192064	
 -1.161954	
 -1.142031	
 -1.167959	
 -1.178604	
 -1.179060	
 -1.189704	
 -1.195255	
 -1.195711	
 -1.191072	
 -1.196623	
 -1.212363	
 -1.223008	
 -1.243842	
 -1.244299	
 -1.198907	
 -1.189175	
 -1.204915	
 -1.195183	
 -1.195640	
 -1.175721	
 -1.155800	
 -1.171542	
 -1.192377	
 -1.192834	
 -1.218764	
 -1.214127	
 -1.234963	
 -1.260894	
 -1.271540	
 -1.266904	
 -1.262269	
 -1.221972	
 -1.191865	
 -1.166852	
 -1.162216	
 -1.188147	
 -1.173323	
 -1.199254	
 -1.204807	
 -1.210362	
 -1.226104	
 -1.216375	
 -1.211740	
 -1.217294	
 -1.227943	
 -1.218214	
 -1.213580	
 -1.208945	
 -1.199217	
 -1.220055	
 -1.200138	
 -1.170032	
 -1.175588	
 -1.165859	
 -1.171414	
 -1.187159	
 -1.207997	
 -1.213552	
 -1.234392	
 -1.270513	
 -1.260786	
 -1.235776	
 -1.220954	
 -1.236699	
 -1.221878	
 -1.186679	
 -1.176952	
 -1.187603	
 -1.239009	
 -1.219094	
 -1.199179	
 -1.209830	
 -1.220481	
 -1.246416	
 -1.251972	
 -1.252435	
 -1.227427	
 -1.238078	
 -1.223258	
 -1.239005	
 -1.254751	
 -1.239931	
 -1.220018	
 -1.215388	
 -1.195473	
 -1.185748	
 -1.165835	
 -1.176488	
 -1.176952	
 -1.197793	
 -1.239012	
 -1.270043	
 -1.270507	
 -1.270972	
 -1.291814	
 -1.287184	
 -1.277461	
 -1.247359	
 -1.191786	
 -1.171874	
 -1.172339	
 -1.167711	
 -1.188553	
 -1.194112	
 -1.199673	
 -1.210328	
 -1.236264	
 -1.267296	
 -1.288140	
 -1.339549	
 -1.329827	
 -1.304821	
 -1.279816	
 -1.285377	
 -1.245088	
 -1.220083	
 -1.225644	
 -1.221016	
 -1.216389	
 -1.211761	
 -1.232606	
 -1.217790	
 -1.213162	
 -1.269668	
 -1.331267	
 -1.331734	
 -1.276164	
 -1.246066	
 -1.246533	
 -1.267379	
 -1.293319	
 -1.288692	
 -1.294255	
 -1.269251	
 -1.249341	
 -1.270188	
 -1.245184	
 -1.271125	
 -1.210460	
 -1.200741	
 -1.231776	
 -1.288283	
 -1.319318	
 -1.319787	
 -1.330445	
 -1.351291	
 -1.351760	
 -1.326758	
 -1.296661	
 -1.276754	
 -1.277223	
 -1.272598	
 -1.257785	
 -1.242972	
 -1.243442	
 -1.249007	
 -1.305515	
 -1.305985	
 -1.291171	
 -1.291642	
 -1.302301	
 -1.323150	
 -1.338903	
 -1.339374	
 -1.324562	
 -1.284278	
 -1.269466	
 -1.290314	
 -1.311163	
 -1.286162	
 -1.291728	
 -1.256539	
 -1.277387	
 -1.323708	
 -1.308897	
 -1.314463	
 -1.304746	
 -1.279746	
 -1.300595	
 -1.326539	
 -1.327011	
 -1.286729	
 -1.266824	
 -1.262202	
 -1.272863	
 -1.273335	
 -1.263620	
 -1.269187	
 -1.290036	
 -1.310887	
 -1.336832	
 -1.322022	
 -1.307211	
 -1.297497	
 -1.287781	
 -1.262782	
 -1.237784	
 -1.187314	
 -1.141939	
 -1.147507	
 -1.132697	
 -1.138265	
 -1.133645	
 -1.129025	
 -1.119310	
 -1.135067	
 -1.155919	
 -1.161488	
 -1.192528	
 -1.233758	
 -1.239326	
 -1.224518	
 -1.179144	
 -1.189808	
 -1.185188	
 -1.221323	
 -1.242176	
 -1.263029	
 -1.273692	
 -1.192658	
 -1.147283	
 -1.163042	
 -1.209367	
 -1.281164	
 -1.256168	
 -1.251548	
 -1.252024	
 -1.257595	
 -1.293731	
 -1.299302	
 -1.269212	
 -1.239121	
 -1.244693	
 -1.229886	
 -1.194701	
 -1.205367	
 -1.231315	
 -1.221603	
 -1.216986	
 -1.253123	
 -1.294354	
 -1.279548	
 -1.280025	
 -1.285597	
 -1.291169	
 -1.306929	
 -1.312500	
 -1.318072	
 -1.272700	
 -1.262989	
 -1.258372	
 -1.263944	
 -1.264422	
 -1.290372	
 -1.326510	
 -1.281139	
 -1.317278	
 -1.353417	
 -1.348800	
 -1.379844	
 -1.339567	
 -1.334952	
 -1.355808	
 -1.386853	
 -1.356766	
 -1.331772	
 -1.306779	
 -1.317447	
 -1.302643	
 -1.282744	
 -1.273034	
 -1.273513	
 -1.289276	
 -1.335605	
 -1.341178	
 -1.336563	
 -1.352326	
 -1.368088	
 -1.378757	
 -1.348670	
 -1.338962	
 -1.319063	
 -1.294072	
 -1.258891	
 -1.223711	
 -1.229286	
 -1.199200	
 -1.255718	
 -1.276575	
 -1.343283	
 -1.394706	
 -1.446131	
 -1.446611	
 -1.447092	
 -1.452667	
 -1.468431	
 -1.468912	
 -1.505054	
 -1.551384	
 -1.597714	
 -1.628761	
 -1.649620	
 -1.731610	
 -1.813602	
 -1.921064	
 -2.018339	
 -2.105424	
 -2.197605	
 -2.310162	
 -2.412531	
 -2.438484	
 -2.428778	
 -2.408882	
 -2.399175	
 -2.318148	
 -2.257498	
 -2.222320	
 -2.197330	
 -2.167246	
 -2.121880	
 -2.091796	
 -1.995486	
 -1.878799	
 -1.736639	
 -1.518065	
 -1.406472	
 -1.264313	
 -1.117060	
 -0.934146	
 -0.741043	
 -0.522469	
 -0.273329	
 -0.095509	
 0.026271	
 0.061449	
 0.071153	
 0.060482	
 0.019243	
 -0.067844	
 -0.200782	
 -0.338813	
 -0.451373	
 -0.563933	
 -0.605172	
 -0.722826	
 -0.799725	
 -0.861341	
 -0.943335	
 -0.999858	
 -1.051285	
 -1.082336	
 -1.118481	
 -1.185192	
 -1.221337	
 -1.237105	
 -1.257967	
 -1.299206	
 -1.340446	
 -1.351120	
 -1.371982	
 -1.372467	
 -1.367858	
 -1.353060	
 -1.348451	
 -1.323465	
 -1.293384	
 -1.293869	
 -1.279072	
 -1.279557	
 -1.300420	
 -1.326377	
 -1.337052	
 -1.337538	
 -1.363495	
 -1.384358	
 -1.389938	
 -1.405707	
 -1.421476	
 -1.421963	
 -1.422449	
 -1.438218	
 -1.397949	
 -1.372965	
 -1.398922	
 -1.404503	
 -1.379518	
 -1.344344	
 -1.355019	
 -1.340223	
 -1.371275	
 -1.407423	
 -1.423193	
 -1.408397	
 -1.408884	
 -1.439937	
 -1.420047	
 -1.430722	
 -1.477058	
 -1.446980	
 -1.396524	
 -1.351162	
 -1.331272	
 -1.372514	
 -1.388285	
 -1.383678	
 -1.424921	
 -1.455975	
 -1.456462	
 -1.451855	
 -1.452343	
 -1.457926	
 -1.473697	
 -1.479279	
 -1.454295	
 -1.419123	
 -1.409422	
 -1.389534	
 -1.349267	
 -1.365038	
 -1.380810	
 -1.427147	
 -1.422542	
 -1.407747	
 -1.418424	
 -1.424007	
 -1.419401	
 -1.455551	
 -1.461134	
 -1.446340	
 -1.446829	
 -1.447317	
 -1.412147	
 -1.387164	
 -1.402936	
 -1.398331	
 -1.383537	
 -1.389120	
 -1.415082	
 -1.420665	
 -1.400778	
 -1.431833	
 -1.437417	
 -1.463378	
 -1.489340	
 -1.515301	
 -1.500507	
 -1.460243	
 -1.476016	
 -1.461223	
 -1.436241	
 -1.436731	
 -1.437221	
 -1.437711	
 -1.438201	
 -1.443785	
 -1.444276	
 -1.439672	
 -1.445256	
 -1.466125	
 -1.486992	
 -1.487483	
 -1.493067	
 -1.457898	
 -1.427822	
 -1.428313	
 -1.423709	
 -1.383446	
 -1.394124	
 -1.384427	
 -1.415484	
 -1.421069	
 -1.406277	
 -1.416957	
 -1.442919	
 -1.463788	
 -1.459186	
 -1.474960	
 -1.475451	
 -1.501414	
 -1.476434	
 -1.456547	
 -1.426473	
 -1.391304	
 -1.381607	
 -1.407571	
 -1.423345	
 -1.454403	
 -1.434517	
 -1.429915	
 -1.460972	
 -1.481842	
 -1.492522	
 -1.513392	
 -1.544450	
 -1.565319	
 -1.519962	
 -1.479700	
 -1.480192	
 -1.455212	
 -1.465893	
 -1.446009	
 -1.431218	
 -1.462276	
 -1.467863	
 -1.417412	
 -1.428093	
 -1.443869	
 -1.459644	
 -1.455043	
 -1.445347	
 -1.466217	
 -1.492182	
 -1.477392	
 -1.498262	
 -1.493661	
 -1.483965	
 -1.489552	
 -1.490045	
 -1.500727	
 -1.496126	
 -1.476241	
 -1.481829	
 -1.507794	
 -1.564325	
 -1.610667	
 -1.595878	
 -1.540333	
 -1.515356	
 -1.520943	
 -1.516343	
 -1.516836	
 -1.486764	
 -1.461786	
 -1.462279	
 -1.462773	
 -1.488739	
 -1.484138	
 -1.505010	
 -1.505503	
 -1.521280	
 -1.567623	
 -1.593589	
 -1.624649	
 -1.620049	
 -1.610355	
 -1.595566	
 -1.580777	
 -1.545610	
 -1.500256	
 -1.495656	
 -1.485961	
 -1.471173	
 -1.481855	
 -1.477256	
 -1.482844	
 -1.513906	
 -1.519494	
 -1.550555	
 -1.540860	
 -1.541355	
 -1.562228	
 -1.593289	
 -1.598877	
 -1.599372	
 -1.564207	
 -1.544324	
 -1.504065	
 -1.489276	
 -1.484677	
 -1.459700	
 -1.455101	
 -1.475973	
 -1.507035	
 -1.563568	
 -1.574252	
 -1.584936	
 -1.559959	
 -1.529889	
 -1.540573	
 -1.500313	
 -1.510998	
 -1.501304	
 -1.481422	
 -1.487012	
 -1.467130	
 -1.477815	
 -1.478310	
 -1.504278	
 -1.479302	
 -1.454325	
 -1.475199	
 -1.490978	
 -1.506757	
 -1.527629	
 -1.533220	
 -1.533716	
 -1.534212	
 -1.560179	
 -1.530109	
 -1.489850	
 -1.429214	
 -1.383861	
 -1.414924	
 -1.430703	
 -1.446482	
 -1.416412	
 -1.391436	
 -1.391933	
 -1.433184	
 -1.438774	
 -1.439271	
 -1.419390	
 -1.409698	
 -1.440760	
 -1.415786	
 -1.365338	
 -1.304703	
 -1.269538	
 -1.280224	
 -1.296004	
 -1.316878	
 -1.312280	
 -1.338249	
 -1.359122	
 -1.339242	
 -1.324456	
 -1.345330	
 -1.386582	
 -1.397268	
 -1.336633	
 -1.281092	
 -1.256117	
 -1.251520	
 -1.246922	
 -1.257608	
 -1.283577	
 -1.258602	
 -1.243816	
 -1.223936	
 -1.244810	
 -1.275874	
 -1.276371	
 -1.297245	
 -1.302838	
 -1.323712	
 -1.334398	
 -1.319613	
 -1.289544	
 -1.290041	
 -1.290539	
 -1.255375	
 -1.235496	
 -1.251276	
 -1.241585	
 -1.247178	
 -1.262958	
 -1.299116	
 -1.335274	
 -1.391810	
 -1.382119	
 -1.372428	
 -1.342359	
 -1.337763	
 -1.333166	
 -1.308192	
 -1.293407	
 -1.304093	
 -1.304591	
 -1.320372	
 -1.320870	
 -1.300991	
 -1.301489	
 -1.296892	
 -1.338145	
 -1.399776	
 -1.446123	
 -1.451715	
 -1.462403	
 -1.452712	
 -1.432833	
 -1.463897	
 -1.474583	
 -1.449610	
 -1.455203	
 -1.465890	
 -1.481671	
 -1.477075	
 -1.396064	
 -1.355807	
 -1.376683	
 -1.433219	
 -1.449000	
 -1.480065	
 -1.495847	
 -1.486157	
 -1.512127	
 -1.522814	
 -1.533501	
 -1.493245	
 -1.488649	
 -1.463676	
 -1.443798	
 -1.423918	
 -1.454983	
 -1.480953	
 -1.481452	
 -1.512517	
 -1.507921	
 -1.518609	
 -1.549674	
 -1.539984	
 -1.565955	
 -1.561358	
 -1.577141	
 -1.531790	
 -1.496629	
 -1.507317	
 -1.492532	
 -1.493030	
 -1.478246	
 -1.463462	
 -1.474150	
 -1.500121	
 -1.526092	
 -1.567345	
 -1.542373	
 -1.568343	
 -1.579031	
 -1.594813	
 -1.630973	
 -1.616190	
 -1.596311	
 -1.561150	
 -1.531083	
 -1.531582	
 -1.506609	
 -1.486730	
 -1.482136	
 -1.492824	
 -1.528983	
 -1.560048	
 -1.591114	
 -1.617085	
 -1.622679	
 -1.623178	
 -1.628772	
 -1.654743	
 -1.634864	
 -1.599704	
 -1.569637	
 -1.534475	
 -1.524787	
 -1.535474	
 -1.556351	
 -1.561945	
 -1.552255	
 -1.552755	
 -1.583820	
 -1.604698	
 -1.625574	
 -1.641357	
 -1.657139	
 -1.637262	
 -1.658138	
 -1.597506	
 -1.552156	
 -1.537373	
 -1.548061	
 -1.553655	
 -1.564343	
 -1.580126	
 -1.601003	
 -1.596408	
 -1.581625	
 -1.556653	
 -1.567341	
 -1.603501	
 -1.614190	
 -1.635066	
 -1.645755	
 -1.651349	
 -1.560150	
 -1.484235	
 -1.484735	
 -1.459762	
 -1.511205	
 -1.552460	
 -1.558055	
 -1.578931	
 -1.615092	
 -1.666535	
 -1.661941	
 -1.662440	
 -1.637468	
 -1.597213	
 -1.607902	
 -1.628779	
 -1.588523	
 -1.548269	
 -1.513108	
 -1.533985	
 -1.534485	
 -1.555363	
 -1.581335	
 -1.612400	
 -1.592522	
 -1.613400	
 -1.618994	
 -1.644966	
 -1.609805	
 -1.600117	
 -1.580239	
 -1.580739	
 -1.601616	
 -1.591927	
 -1.597521	
 -1.582738	
 -1.578144	
 -1.563361	
 -1.558767	
 -1.549078	
 -1.559767	
 -1.585738	
 -1.611710	
 -1.617304	
 -1.612710	
 -1.643776	
 -1.644276	
 -1.619304	
 -1.609616	
 -1.599927	
 -1.569860	
 -1.570360	
 -1.586143	
 -1.566266	
 -1.541294	
 -1.541794	
 -1.557577	
 -1.583549	
 -1.609520	
 -1.635492	
 -1.635992	
 -1.616115	
 -1.601332	
 -1.606926	
 -1.617615	
 -1.628303	
 -1.603332	
 -1.593643	
 -1.589049	
 -1.579360	
 -1.590049	
 -1.621115	
 -1.611426	
 -1.586454	
 -1.581860	
 -1.597643	
 -1.598143	
 -1.598643	
 -1.614426	
 -1.599643	
 -1.605237	
 -1.626115	
 -1.657181	
 -1.632209	
 -1.607237	
 -1.602643	
 -1.572577	
 -1.557794	
 -1.563388	
 -1.589360	
 -1.579671	
 -1.590360	
 -1.611237	
 -1.632115	
 -1.668275	
 -1.694247	
 -1.679464	
 -1.669775	
 -1.644803	
 -1.624926	
 -1.589766	
 -1.590266	
 -1.616237	
 -1.621832	
 -1.627425	
 -1.582076	
 -1.557104	
 -1.547415	
 -1.568293	
 -1.599359	
 -1.620236	
 -1.630925	
 -1.621236	
 -1.637019	
 -1.668085	
 -1.683868	
 -1.684368	
 -1.649207	
 -1.644613	
 -1.660396	
 -1.609952	
 -1.600263	
 -1.575291	
 -1.580885	
 -1.576291	
 -1.602263	
 -1.618046	
 -1.644016	
 -1.675083	
 -1.634828	
 -1.665894	
 -1.671487	
 -1.646515	
 -1.626638	
 -1.616949	
 -1.612354	
 -1.623043	
 -1.613354	
 -1.603665	
 -1.604164	
 -1.599570	
 -1.600070	
 -1.626041	
 -1.636729	
 -1.667795	
 -1.678483	
 -1.673889	
 -1.684578	
 -1.690171	
 -1.711048	
 -1.680981	
 -1.666198	
 -1.646321	
 -1.641725	
 -1.642225	
 -1.637630	
 -1.643224	
 -1.592780	
 -1.583091	
 -1.598873	
 -1.619751	
 -1.640627	
 -1.651316	
 -1.667098	
 -1.657409	
 -1.673191	
 -1.683879	
 -1.664001	
 -1.644123	
 -1.624246	
 -1.634933	
 -1.630338	
 -1.600272	
 -1.590582	
 -1.626742	
 -1.673091	
 -1.683778	
 -1.668994	
 -1.705155	
 -1.715843	
 -1.726530	
 -1.716841	
 -1.712245	
 -1.656707	
 -1.611357	
 -1.657705	
 -1.693865	
 -1.709647	
 -1.618447	
 -1.613853	
 -1.599069	
 -1.619945	
 -1.666294	
 -1.682076	
 -1.677480	
 -1.657602	
 -1.668290	
 -1.699355	
 -1.699854	
 -1.715636	
 -1.705946	
 -1.670785	
 -1.645812	
 -1.641216	
 -1.641715	
 -1.647308	
 -1.663090	
 -1.633023	
 -1.633522	
 -1.649303	
 -1.659991	
 -1.685961	
 -1.681366	
 -1.707336	
 -1.723118	
 -1.713428	
 -1.713926	
 -1.699142	
 -1.689452	
 -1.679762	
 -1.675166	
 -1.685853	
 -1.665975	
 -1.646096	
 -1.656783	
 -1.692942	
 -1.724007	
 -1.714316	
 -1.730098	
 -1.735690	
 -1.705623	
 -1.685744	
 -1.701525	
 -1.702024	
 -1.651578	
 -1.621510	
 -1.632198	
 -1.632696	
 -1.648477	
 -1.623503	
 -1.634191	
 -1.670349	
 -1.726885	
 -1.747761	
 -1.743164	
 -1.728379	
 -1.728877	
 -1.744658	
 -1.729873	
 -1.725277	
 -1.710492	
 -1.700801	
 -1.711488	
 -1.686514	
 -1.681918	
 -1.677321	
 -1.626876	
 -1.632467	
 -1.678814	
 -1.704784	
 -1.705282	
 -1.721062	
 -1.752126	
 -1.706775	
 -1.702178	
 -1.717959	
 -1.713362	
 -1.683293	
 -1.678697	
 -1.658816	
 -1.659314	
 -1.670000	
 -1.665404	
 -1.660806	
 -1.646020	
 -1.697462	
 -1.733619	
 -1.754494	
 -1.754992	
 -1.745300	
 -1.750892	
 -1.761577	
 -1.756981	
 -1.742195	
 -1.707031	
 -1.687151	
 -1.692742	
 -1.683051	
 -1.688642	
 -1.689139	
 -1.694730	
 -1.710510	
 -1.726290	
 -1.721693	
 -1.747662	
 -1.748159	
 -1.753749	
 -1.789907	
 -1.790404	
 -1.806184	
 -1.786302	
 -1.756233	
 -1.746541	
 -1.731754	
 -1.742440	
 -1.697087	
 -1.667018	
 -1.677702	
 -1.703671	
 -1.734733	
 -1.745419	
 -1.745915	
 -1.756600	
 -1.787663	
 -1.803442	
 -1.839598	
 -1.814623	
 -1.779459	
 -1.754483	
 -1.744791	
 -1.740192	
 -1.740688	
 -1.736090	
 -1.741680	
 -1.742176	
 -1.783427	
 -1.829772	
 -1.835363	
 -1.815480	
 -1.800693	
 -1.816472	
 -1.837346	
 -1.807275	
 -1.782299	
 -1.752229	
 -1.737441	
 -1.717559	
 -1.697678	
 -1.723645	
 -1.754706	
 -1.734824	
 -1.750602	
 -1.771476	
 -1.777065	
 -1.757183	
 -1.778056	
 -1.768362	
 -1.784141	
 -1.789730	
 -1.769847	
 -1.739776	
 -1.704612	
 -1.684729	
 -1.690319	
 -1.685719	
 -1.676025	
 -1.701991	
 -1.687203	
 -1.702981	
 -1.718760	
 -1.709065	
 -1.719749	
 -1.715149	
 -1.705454	
 -1.685572	
 -1.665690	
 -1.671278	
 -1.641207	
 -1.636607	
 -1.632007	
 -1.601935	
 -1.592240	
 -1.608018	
 -1.623795	
 -1.634478	
 -1.685916	
 -1.691504	
 -1.697092	
 -1.712870	
 -1.728648	
 -1.739330	
 -1.704164	
 -1.679185	
 -1.664396	
 -1.654701	
 -1.675573	
 -1.655689	
 -1.671465	
 -1.677054	
 -1.692831	
 -1.703512	
 -1.678535	
 -1.668839	
 -1.699899	
 -1.720769	
 -1.756924	
 -1.731945	
 -1.737533	
 -1.753310	
 -1.774180	
 -1.723729	
 -1.698751	
 -1.668678	
 -1.648793	
 -1.679853	
 -1.741478	
 -1.767442	
 -1.783218	
 -1.778617	
 -1.779110	
 -1.769414	
 -1.764813	
 -1.765305	
 -1.781081	
 -1.796857	
 -1.833010	
 -1.818220	
 -1.762674	
 -1.732600	
 -1.738187	
 -1.687735	
 -1.693323	
 -1.709098	
 -1.724873	
 -1.689704	
 -1.720762	
 -1.736537	
 -1.767596	
 -1.808842	
 -1.834806	
 -1.860770	
 -1.825602	
 -1.800622	
 -1.780736	
 -1.776134	
 -1.746059	
 -1.731268	
 -1.731759	
 -1.716968	
 -1.722553	
 -1.728139	
 -1.743913	
 -1.785160	
 -1.831501	
 -1.867652	
 -1.898709	
 -1.863541	
 -1.807994	
 -1.747352	
 -1.763127	
 -1.748334	
 -1.759014	
 -1.744222	
 -1.749807	
 -1.755392	
 -1.776260	
 -1.776751	
 -1.787430	
 -1.818487	
 -1.869922	
 -1.895883	
 -1.937129	
 -1.993657	
 -2.039996	
 -2.121997	
 -2.193808	
 -2.219770	
 -2.250826	
 -2.358297	
 -2.440298	
 -2.456071	
 -2.522788	
 -2.609881	
 -2.686786	
 -2.763691	
 -2.815125	
 -2.800332	
 -2.760066	
 -2.760556	
 -2.745762	
 -2.736063	
 -2.700892	
 -2.696287	
 -2.656022	
 -2.580096	
 -2.524547	
 -2.392583	
 -2.224958	
 -2.047145	
 -1.894803	
 -1.757745	
 -1.625781	
 -1.524382	
 -1.382230	
 -1.229888	
 -1.016413	
 -0.787656	
 -0.630220	
 -0.539010	
 -0.503838	
 -0.463571	
 -0.474249	
 -0.551152	
 -0.648433	
 -0.760998	
 -0.873562	
 -0.970842	
 -1.047746	
 -1.104272	
 -1.206647	
 -1.324305	
 -1.391020	
 -1.442451	
 -1.534637	
 -1.621728	
 -1.678254	
 -1.729686	
 -1.745456	
 -1.725567	
 -1.690393	
 -1.695974	
 -1.721934	
 -1.732610	
 -1.763663	
 -1.784527	
 -1.785014	
 -1.826257	
 -1.862405	
 -1.847608	
 -1.822623	
 -1.823110	
 -1.818503	
 -1.818990	
 -1.814381	
 -1.794491	
 -1.810260	
 -1.795464	
 -1.790855	
 -1.811720	
 -1.791828	
 -1.807598	
 -1.833555	
 -1.854419	
 -1.854905	
 -1.860485	
 -1.871160	
 -1.876740	
 -1.892509	
 -1.867523	
 -1.873104	
 -1.863400	
 -1.853697	
 -1.874560	
 -1.880140	
 -1.875531	
 -1.860734	
 -1.835747	
 -1.841326	
 -1.846906	
 -1.852485	
 -1.868253	
 -1.894210	
 -1.884506	
 -1.879897	
 -1.900759	
 -1.901244	
 -1.886446	
 -1.876741	
 -1.867038	
 -1.867522	
 -1.852724	
 -1.853208	
 -1.838409	
 -1.833799	
 -1.834283	
 -1.860239	
 -1.886195	
 -1.917245	
 -1.933012	
 -1.892741	
 -1.893225	
 -1.898803	
 -1.899287	
 -1.899771	
 -1.859499	
 -1.854888	
 -1.840088	
 -1.871137	
 -1.897093	
 -1.892482	
 -1.903154	
 -1.888353	
 -1.878648	
 -1.879131	
 -1.889802	
 -1.910663	
 -1.885674	
 -1.860685	
 -1.876450	
 -1.897311	
 -1.892698	
 -1.913559	
 -1.944607	
 -1.924713	
 -1.909912	
 -1.905299	
 -1.890498	
 -1.870603	
 -1.850707	
 -1.861378	
 -1.856766	
 -1.887814	
 -1.918862	
 -1.924437	
 -1.924919	
 -1.945778	
 -1.956448	
 -1.931458	
 -1.896279	
 -1.891666	
 -1.866675	
 -1.877345	
 -1.888014	
 -1.888495	
 -1.899165	
 -1.914929	
 -1.920505	
 -1.900607	
 -1.911277	
 -1.932135	
 -1.952993	
 -1.953474	
 -1.948859	
 -1.923868	
 -1.893781	
 -1.878979	
 -1.869271	
 -1.885034	
 -1.880419	
 -1.875805	
 -1.886473	
 -1.876764	
 -1.902716	
 -1.903195	
 -1.929147	
 -1.929626	
 -1.955577	
 -1.971339	
 -1.961630	
 -1.977392	
 -1.957494	
 -1.968162	
 -1.922792	
 -1.923270	
 -1.898277	
 -1.898756	
 -1.909424	
 -1.884430	
 -1.910381	
 -1.956708	
 -1.982659	
 -1.972948	
 -1.963237	
 -1.953527	
 -1.969288	
 -1.995237	
 -2.021187	
 -1.991099	
 -1.945728	
 -1.925828	
 -1.890645	
 -1.896217	
 -1.891600	
 -1.897172	
 -1.918027	
 -1.938881	
 -1.949548	
 -1.970402	
 -1.996351	
 -1.991734	
 -2.027871	
 -1.977405	
 -1.967692	
 -1.973263	
 -1.973740	
 -1.979311	
 -1.974693	
 -1.975169	
 -1.960362	
 -1.965933	
 -1.940938	
 -1.951603	
 -1.972456	
 -1.972932	
 -1.968313	
 -1.968789	
 -1.989642	
 -1.995211	
 -1.995687	
 -2.006351	
 -1.996638	
 -1.986925	
 -1.997588	
 -1.992969	
 -1.957784	
 -1.973542	
 -1.974017	
 -1.959209	
 -1.990250	
 -2.006008	
 -2.011576	
 -2.027334	
 -2.043091	
 -2.048661	
 -2.059323	
 -2.049609	
 -2.029705	
 -1.994519	
 -1.964427	
 -1.949617	
 -1.934808	
 -1.960754	
 -1.951038	
 -1.976984	
 -1.951985	
 -1.967743	
 -1.998782	
 -2.040009	
 -2.060860	
 -2.015484	
 -2.015957	
 -2.026618	
 -2.047469	
 -2.037753	
 -1.997471	
 -1.967377	
 -1.942378	
 -1.917379	
 -1.953511	
 -1.964173	
 -1.949362	
 -1.939645	
 -1.975778	
 -1.976250	
 -2.002193	
 -1.987382	
 -1.992948	
 -1.983231	
 -2.004079	
 -2.009646	
 -1.989739	
 -1.969833	
 -1.955022	
 -1.935115	
 -1.905020	
 -1.900397	
 -1.926339	
 -1.926810	
 -1.937469	
 -1.953222	
 -1.938410	
 -1.913409	
 -1.918974	
 -1.934727	
 -1.965763	
 -2.017177	
 -1.961609	
 -1.916230	
 -1.860662	
 -1.850943	
 -1.851412	
 -1.862071	
 -1.888011	
 -1.893576	
 -1.899139	
 -1.904702	
 -1.869512	
 -1.839415	
 -1.814412	
 -1.804691	
 -1.820443	
 -1.815818	
 -1.826476	
 -1.842227	
 -1.807035	
 -1.787126	
 -1.787594	
 -1.803345	
 -1.819097	
 -1.794093	
 -1.784372	
 -1.749179	
 -1.764930	
 -1.780681	
 -1.781148	
 -1.771428	
 -1.761706	
 -1.746890	
 -1.732075	
 -1.732542	
 -1.722820	
 -1.708004	
 -1.698282	
 -1.714031	
 -1.719593	
 -1.725154	
 -1.751092	
 -1.761747	
 -1.752025	
 -1.767774	
 -1.768240	
 -1.758517	
 -1.743700	
 -1.713600	
 -1.734443	
 -1.760380	
 -1.755752	
 -1.746029	
 -1.751588	
 -1.746959	
 -1.721953	
 -1.717324	
 -1.738166	
 -1.779386	
 -1.739096	
 -1.749749	
 -1.811346	
 -1.811811	
 -1.817370	
 -1.807645	
 -1.787733	
 -1.849329	
 -1.859982	
 -1.840068	
 -1.835438	
 -1.815524	
 -1.846554	
 -1.816451	
 -1.811821	
 -1.797001	
 -1.817842	
 -1.848871	
 -1.869712	
 -1.880364	
 -1.921581	
 -1.942422	
 -1.907224	
 -1.887310	
 -1.897961	
 -1.908612	
 -1.888697	
 -1.904442	
 -1.889622	
 -1.930839	
 -1.946584	
 -1.941951	
 -1.947508	
 -1.963252	
 -2.009563	
 -2.040591	
 -2.015580	
 -2.021137	
 -2.021598	
 -1.976210	
 -1.946104	
 -1.941471	
 -1.972498	
 -1.967865	
 -1.937759	
 -1.902559	
 -1.882643	
 -1.883103	
 -1.888657	
 -1.889117	
 -1.904861	
 -1.956265	
 -1.997479	
 -2.008127	
 -2.018776	
 -2.044708	
 -2.045167	
 -2.045627	
 -2.071558	
 -2.092394	
 -2.031721	
 -1.971048	
 -1.956223	
 -1.971966	
 -1.977519	
 -1.972883	
 -1.993719	
 -2.004366	
 -2.030296	
 -2.046038	
 -2.071967	
 -2.077520	
 -2.067789	
 -2.083530	
 -2.068705	
 -2.115011	
 -2.100186	
 -2.054794	
 -1.994119	
 -1.969105	
 -1.995034	
 -2.005679	
 -2.006136	
 -2.026971	
 -2.042710	
 -2.053356	
 -2.058906	
 -2.079740	
 -2.080196	
 -2.080652	
 -2.086203	
 -2.081564	
 -2.087115	
 -2.067193	
 -2.062555	
 -2.032444	
 -2.017617	
 -2.038449	
 -2.043999	
 -2.075021	
 -2.060193	
 -2.055553	
 -2.045819	
 -2.046273	
 -2.036540	
 -2.057372	
 -2.073109	
 -2.078658	
 -2.094396	
 -2.099944	
 -2.074926	
 -2.049908	
 -2.055457	
 -2.050815	
 -2.041081	
 -2.036439	
 -2.052176	
 -2.093384	
 -2.134592	
 -2.119762	
 -2.079460	
 -2.100291	
 -2.100744	
 -2.106291	
 -2.096554	
 -2.132668	
 -2.128025	
 -2.052062	
 -2.032137	
 -2.027494	
 -2.022852	
 -2.008021	
 -1.972812	
 -1.947792	
 -1.922772	
 -1.979261	
 -2.030656	
 -2.066768	
 -2.087596	
 -2.088047	
 -2.093593	
 -2.094043	
 -2.104682	
 -2.074566	
 -2.039357	
 -2.034712	
 -2.035162	
 -2.040707	
 -2.036062	
 -2.056890	
 -2.036962	
 -2.078167	
 -2.114277	
 -2.119821	
 -2.110081	
 -2.130908	
 -2.131357	
 -2.136900	
 -2.122066	
 -2.107232	
 -2.082208	
 -2.057185	
 -2.027067	
 -2.017328	
 -2.007587	
 -2.018224	
 -2.033955	
 -2.024214	
 -2.039945	
 -2.060769	
 -2.061217	
 -2.082042	
 -2.082490	
 -2.088031	
 -2.083384	
 -2.099114	
 -2.089372	
 -2.084725	
 -2.059699	
 -2.070335	
 -2.070781	
 -2.040662	
 -2.030919	
 -2.051742	
 -2.026717	
 -2.016974	
 -2.032702	
 -2.063714	
 -2.120198	
 -2.141020	
 -2.156748	
 -2.111344	
 -2.086318	
 -2.046008	
 -2.031170	
 -2.021426	
 -2.006588	
 -2.017220	
 -2.022760	
 -2.053770	
 -2.074591	
 -2.095413	
 -2.106046	
 -2.081018	
 -2.071272	
 -2.081905	
 -2.067065	
 -2.067509	
 -2.098518	
 -2.104055	
 -2.084121	
 -2.084564	
 -2.054441	
 -2.034505	
 -2.060420	
 -2.055768	
 -2.035833	
 -2.010803	
 -2.046906	
 -2.067725	
 -2.098733	
 -2.109363	
 -2.104711	
 -2.125530	
 -2.125971	
 -2.126412	
 -2.111570	
 -2.091634	
 -2.076792	
 -2.067044	
 -2.057296	
 -2.067925	
 -2.053083	
 -2.043334	
 -2.079435	
 -2.115535	
 -2.131258	
 -2.131698	
 -2.121950	
 -2.096917	
 -2.112640	
 -2.102890	
 -2.093140	
 -2.068108	
 -2.048169	
 -2.043514	
 -2.038858	
 -2.064769	
 -2.055019	
 -2.086024	
 -2.086462	
 -2.091994	
 -2.082243	
 -2.082681	
 -2.103497	
 -2.114122	
 -2.124749	
 -2.135375	
 -2.140907	
 -2.161722	
 -2.136687	
 -2.121841	
 -2.117183	
 -2.076865	
 -2.046735	
 -2.026794	
 -2.001759	
 -1.986912	
 -2.012820	
 -2.084577	
 -2.100296	
 -2.126204	
 -2.111356	
 -2.127075	
 -2.142793	
 -2.122850	
 -2.108002	
 -2.082966	
 -2.063023	
 -2.063458	
 -2.089365	
 -2.115271	
 -2.090233	
 -2.065196	
 -2.065630	
 -2.086442	
 -2.122536	
 -2.133158	
 -2.143781	
 -2.144214	
 -2.144648	
 -2.139986	
 -2.145514	
 -2.135758	
 -2.100530	
 -2.075492	
 -2.070829	
 -2.030507	
 -2.051317	
 -2.097599	
 -2.087842	
 -2.098463	
 -2.109084	
 -2.084043	
 -2.089569	
 -2.135849	
 -2.161753	
 -2.157090	
 -2.162615	
 -2.117197	
 -2.071779	
 -2.082399	
 -2.098112	
 -2.103637	
 -2.139727	
 -2.150346	
 -2.140587	
 -2.130829	
 -2.151636	
 -2.146972	
 -2.162685	
 -2.163114	
 -2.168637	
 -2.158879	
 -2.149119	
 -2.154642	
 -2.155070	
 -2.150405	
 -2.145739	
 -2.100318	
 -2.085463	
 -2.085891	
 -2.106698	
 -2.091842	
 -2.082081	
 -2.097792	
 -2.133879	
 -2.164874	
 -2.180584	
 -2.181011	
 -2.155966	
 -2.100355	
 -2.095688	
 -2.085925	
 -2.050691	
 -2.051117	
 -2.041355	
 -2.067253	
 -2.144095	
 -2.149614	
 -2.119474	
 -2.104617	
 -2.110136	
 -2.100373	
 -2.131365	
 -2.152167	
 -2.147497	
 -2.163205	
 -2.184007	
 -2.169148	
 -2.169573	
 -2.134337	
 -2.114383	
 -2.068958	
 -2.069382	
 -2.069806	
 -2.085512	
 -2.070653	
 -2.106737	
 -2.147914	
 -2.143243	
 -2.153855	
 -2.174655	
 -2.200550	
 -2.165311	
 -2.135168	
 -2.130496	
 -2.115635	
 -2.126246	
 -2.126668	
 -2.127089	
 -2.112228	
 -2.107555	
 -2.113071	
 -2.098208	
 -2.129196	
 -2.129617	
 -2.140226	
 -2.150835	
 -2.151256	
 -2.156770	
 -2.172473	
 -2.198366	
 -2.188598	
 -2.148262	
 -2.118116	
 -2.133819	
 -2.118955	
 -2.083713	
 -2.068849	
 -2.089645	
 -2.141008	
 -2.187276	
 -2.218261	
 -2.193208	
 -2.178342	
 -2.173667	
 -2.189368	
 -2.220352	
 -2.215675	
 -2.180432	
 -2.124813	
 -2.104852	
 -2.095080	
 -2.126064	
 -2.126481	
 -2.131992	
 -2.086560	
 -2.127731	
 -2.153619	
 -2.148941	
 -2.154451	
 -2.190528	
 -2.196038	
 -2.181170	
 -2.186680	
 -2.197284	
 -2.177323	
 -2.152266	
 -2.157775	
 -2.214228	
 -2.194266	
 -2.209963	
 -2.261321	
 -2.241358	
 -2.206112	
 -2.175959	
 -2.186562	
 -2.217542	
 -2.202672	
 -2.162331	
 -2.152556	
 -2.168252	
 -2.183948	
 -2.214927	
 -2.225529	
 -2.215753	
 -2.246731	
 -2.201294	
 -2.181329	
 -2.181741	
 -2.207625	
 -2.243697	
 -2.239014	
 -2.229238	
 -2.224554	
 -2.235154	
 -2.250848	
 -2.256353	
 -2.246576	
 -2.246986	
 -2.232114	
 -2.212146	
 -2.192180	
 -2.187495	
 -2.162434	
 -2.173031	
 -2.163253	
 -2.184039	
 -2.194638	
 -2.189952	
 -2.200550	
 -2.211148	
 -2.257406	
 -2.252720	
 -2.232751	
 -2.222971	
 -2.213190	
 -2.223787	
 -2.219100	
 -2.204225	
 -2.189350	
 -2.174474	
 -2.174882	
 -2.180383	
 -2.201168	
 -2.191386	
 -2.176509	
 -2.187105	
 -2.177322	
 -2.177729	
 -2.183229	
 -2.188730	
 -2.158570	
 -2.118221	
 -2.093154	
 -2.042616	
 -2.063399	
 -2.094370	
 -2.054020	
 -2.034048	
 -2.070113	
 -2.101083	
 -2.096394	
 -2.142647	
 -2.122674	
 -2.128172	
 -2.148953	
 -2.149356	
 -2.144666	
 -2.129786	
 -2.135283	
 -2.120404	
 -2.105523	
 -2.100832	
 -2.121612	
 -2.127109	
 -2.096946	
 -2.127914	
 -2.118127	
 -2.113435	
 -2.103648	
 -2.098955	
 -2.140111	
 -2.181267	
 -2.196951	
 -2.187164	
 -2.162093	
 -2.167588	
 -2.178177	
 -2.112351	
 -2.092374	
 -2.108057	
 -2.103363	
 -2.083385	
 -2.129633	
 -2.165694	
 -2.191565	
 -2.202152	
 -2.192364	
 -2.187667	
 -2.193161	
 -2.188465	
 -2.158297	
 -2.148506	
 -2.159094	
 -2.144209	
 -2.164983	
 -2.165381	
 -2.191251	
 -2.161082	
 -2.181857	
 -2.207725	
 -2.197934	
 -2.213614	
 -2.234388	
 -2.219501	
 -2.224992	
 -2.240671	
 -2.210501	
 -2.200709	
 -2.196009	
 -2.206594	
 -2.196800	
 -2.202291	
 -2.197591	
 -2.228552	
 -2.213663	
 -2.234436	
 -2.301057	
 -2.281074	
 -2.250902	
 -2.241107	
 -2.272067	
 -2.267367	
 -2.252477	
 -2.252871	
 -2.207415	
 -2.197619	
 -2.177634	
 -2.178027	
 -2.137665	
 -2.112586	
 -2.153733	
 -2.215257	
 -2.246215	
 -2.241513	
 -2.257188	
 -2.272862	
 -2.314009	
 -2.334777	
 -2.355546	
 -2.391597	
 -2.442932	
 -2.453511	
 -2.464090	
 -2.489952	
 -2.546380	
 -2.658845	
 -2.806972	
 -2.893966	
 -2.940204	
 -2.991538	
 -3.063247	
 -3.150241	
 -3.262705	
 -3.324227	
 -3.324615	
 -3.207833	
 -3.111429	
 -3.065967	
 -3.056167	
 -3.071838	
 -3.041659	
 -3.006386	
 -2.935452	
 -2.900179	
 -2.834339	
 -2.732839	
 -2.600773	
 -2.417762	
 -2.295885	
 -2.184195	
 -2.057222	
 -1.884400	
 -1.686106	
 -1.477622	
 -1.233479	
 -1.040279	
 -0.908211	
 -0.852558	
 -0.827471	
 -0.817666	
 -0.889372	
 -1.012021	
 -1.155047	
 -1.262412	
 -1.364683	
 -1.451671	
 -1.523375	
 -1.610363	
 -1.692256	
 -1.774149	
 -1.815287	
 -1.886989	
 -1.968882	
 -2.040585	
 -2.081722	
 -2.107576	
 -2.118146	
 -2.108340	
 -2.113816	
 -2.154952	
 -2.196088	
 -2.247412	
 -2.227416	
 -2.192136	
 -2.197612	
 -2.228558	
 -2.259504	
 -2.249695	
 -2.244981	
 -2.224984	
 -2.215175	
 -2.220648	
 -2.200651	
 -2.211218	
 -2.186126	
 -2.211975	
 -2.242921	
 -2.294243	
 -2.320093	
 -2.315377	
 -2.290283	
 -2.265189	
 -2.280849	
 -2.265944	
 -2.230661	
 -2.215754	
 -2.190660	
 -2.196131	
 -2.206697	
 -2.222356	
 -2.283865	
 -2.299524	
 -2.335561	
 -2.335937	
 -2.295558	
 -2.275555	
 -2.275930	
 -2.291589	
 -2.297059	
 -2.312717	
 -2.297808	
 -2.262522	
 -2.252708	
 -2.242893	
 -2.243267	
 -2.258924	
 -2.264392	
 -2.264765	
 -2.300800	
 -2.367399	
 -2.352489	
 -2.301919	
 -2.292103	
 -2.297569	
 -2.343791	
 -2.369635	
 -2.344536	
 -2.273587	
 -2.228108	
 -2.243764	
 -2.244135	
 -2.275072	
 -2.300914	
 -2.347135	
 -2.347506	
 -2.378443	
 -2.363530	
 -2.343522	
 -2.369364	
 -2.328979	
 -2.334444	
 -2.324624	
 -2.345370	
 -2.350835	
 -2.310449	
 -2.280252	
 -2.250054	
 -2.224951	
 -2.245696	
 -2.256253	
 -2.276998	
 -2.282461	
 -2.323584	
 -2.329045	
 -2.349790	
 -2.385818	
 -2.381090	
 -2.386551	
 -2.397106	
 -2.372002	
 -2.306141	
 -2.265752	
 -2.271213	
 -2.297050	
 -2.312698	
 -2.313064	
 -2.343996	
 -2.369832	
 -2.344726	
 -2.355279	
 -2.350550	
 -2.366197	
 -2.356372	
 -2.321076	
 -2.352006	
 -2.357464	
 -2.347639	
 -2.322531	
 -2.302516	
 -2.318162	
 -2.333809	
 -2.293417	
 -2.232646	
 -2.253387	
 -2.248654	
 -2.274488	
 -2.305416	
 -2.315966	
 -2.346894	
 -2.342161	
 -2.342522	
 -2.347977	
 -2.363621	
 -2.348699	
 -2.308304	
 -2.298477	
 -2.329403	
 -2.329763	
 -2.330122	
 -2.345765	
 -2.371596	
 -2.356673	
 -2.357032	
 -2.352296	
 -2.316994	
 -2.312258	
 -2.307522	
 -2.318069	
 -2.313333	
 -2.313690	
 -2.303860	
 -2.299123	
 -2.294386	
 -2.294743	
 -2.279817	
 -2.269985	
 -2.290719	
 -2.321642	
 -2.327092	
 -2.337637	
 -2.343087	
 -2.379104	
 -2.364177	
 -2.364532	
 -2.405641	
 -2.405996	
 -2.406351	
 -2.376140	
 -2.361211	
 -2.346283	
 -2.321165	
 -2.326614	
 -2.332062	
 -2.337509	
 -2.327675	
 -2.348405	
 -2.358947	
 -2.364394	
 -2.380030	
 -2.385477	
 -2.390924	
 -2.401465	
 -2.406911	
 -2.397074	
 -2.371955	
 -2.357023	
 -2.352279	
 -2.357726	
 -2.363171	
 -2.353332	
 -2.363872	
 -2.369316	
 -2.384950	
 -2.375112	
 -2.390745	
 -2.391094	
 -2.365972	
 -2.376510	
 -2.392143	
 -2.402680	
 -2.418311	
 -2.403377	
 -2.373160	
 -2.388791	
 -2.384045	
 -2.379299	
 -2.389835	
 -2.385088	
 -2.390530	
 -2.395972	
 -2.401413	
 -2.422137	
 -2.437766	
 -2.458491	
 -2.443554	
 -2.413334	
 -2.393302	
 -2.373271	
 -2.353239	
 -2.323018	
 -2.318269	
 -2.318614	
 -2.313865	
 -2.309115	
 -2.304365	
 -2.325087	
 -2.371281	
 -2.366530	
 -2.387252	
 -2.382500	
 -2.403222	
 -2.413753	
 -2.454851	
 -2.470477	
 -2.430065	
 -2.384558	
 -2.359428	
 -2.344488	
 -2.329547	
 -2.350266	
 -2.345513	
 -2.330571	
 -2.330913	
 -2.326160	
 -2.351973	
 -2.357407	
 -2.352654	
 -2.352994	
 -2.353334	
 -2.343485	
 -2.323448	
 -2.303410	
 -2.308844	
 -2.314277	
 -2.304427	
 -2.289483	
 -2.274539	
 -2.269783	
 -2.280309	
 -2.311215	
 -2.301364	
 -2.306795	
 -2.296944	
 -2.317659	
 -2.312902	
 -2.287767	
 -2.272821	
 -2.257875	
 -2.227645	
 -2.202510	
 -2.187563	
 -2.192993	
 -2.172951	
 -2.178381	
 -2.168527	
 -2.179051	
 -2.189575	
 -2.215381	
 -2.236094	
 -2.256805	
 -2.252045	
 -2.216718	
 -2.211958	
 -2.171537	
 -2.095455	
 -2.090695	
 -2.111405	
 -2.116832	
 -2.142637	
 -2.132780	
 -2.122924	
 -2.118162	
 -2.123589	
 -2.108637	
 -2.124252	
 -2.160243	
 -2.180953	
 -2.186378	
 -2.156143	
 -2.146284	
 -2.105860	
 -2.085813	
 -2.096332	
 -2.086473	
 -2.051142	
 -2.046377	
 -2.077273	
 -2.082697	
 -2.144158	
 -2.210713	
 -2.211041	
 -2.216465	
 -2.216793	
 -2.212026	
 -2.202166	
 -2.182116	
 -2.213009	
 -2.198053	
 -2.162721	
 -2.157952	
 -2.148091	
 -2.153512	
 -2.169121	
 -2.194919	
 -2.200339	
 -2.226137	
 -2.251935	
 -2.257354	
 -2.272962	
 -2.283476	
 -2.273612	
 -2.273937	
 -2.294639	
 -2.294963	
 -2.290192	
 -2.290516	
 -2.229708	
 -2.230032	
 -2.230355	
 -2.256150	
 -2.241190	
 -2.221135	
 -2.272401	
 -2.303290	
 -2.329084	
 -2.339595	
 -2.324632	
 -2.330049	
 -2.345653	
 -2.356164	
 -2.346296	
 -2.326238	
 -2.301088	
 -2.306503	
 -2.311917	
 -2.327520	
 -2.332935	
 -2.348537	
 -2.389612	
 -2.389931	
 -2.390250	
 -2.400757	
 -2.401076	
 -2.396300	
 -2.406808	
 -2.412220	
 -2.392161	
 -2.361912	
 -2.357135	
 -2.362547	
 -2.362865	
 -2.347899	
 -2.327837	
 -2.338343	
 -2.308093	
 -2.323692	
 -2.369857	
 -2.375267	
 -2.370489	
 -2.391181	
 -2.416969	
 -2.452945	
 -2.458353	
 -2.448479	
 -2.408039	
 -2.413448	
 -2.393384	
 -2.368227	
 -2.378728	
 -2.363759	
 -2.348789	
 -2.349102	
 -2.339226	
 -2.385389	
 -2.370418	
 -2.380919	
 -2.381231	
 -2.396826	
 -2.397137	
 -2.428016	
 -2.418138	
 -2.428638	
 -2.413665	
 -2.419071	
 -2.399004	
 -2.378937	
 -2.379247	
 -2.374463	
 -2.384961	
 -2.405648	
 -2.441618	
 -2.513248	
 -2.503368	
 -2.473111	
 -2.432665	
 -2.387124	
 -2.402715	
 -2.377552	
 -2.362577	
 -2.362884	
 -2.363192	
 -2.383876	
 -2.389277	
 -2.404867	
 -2.400079	
 -2.425858	
 -2.431258	
 -2.441753	
 -2.467531	
 -2.483119	
 -2.498708	
 -2.499013	
 -2.489129	
 -2.458868	
 -2.448984	
 -2.434005	
 -2.449592	
 -2.439708	
 -2.409445	
 -2.384278	
 -2.374392	
 -2.369601	
 -2.380092	
 -2.385490	
 -2.421453	
 -2.457416	
 -2.488285	
 -2.478398	
 -2.473606	
 -2.479001	
 -2.469114	
 -2.433755	
 -2.403490	
 -2.373225	
 -2.368431	
 -2.368731	
 -2.374126	
 -2.369331	
 -2.405292	
 -2.446347	
 -2.456834	
 -2.457133	
 -2.437056	
 -2.432259	
 -2.437653	
 -2.453235	
 -2.458627	
 -2.443642	
 -2.428657	
 -2.444237	
 -2.434346	
 -2.434643	
 -2.394186	
 -2.379200	
 -2.364213	
 -2.395076	
 -2.400466	
 -2.395668	
 -2.436718	
 -2.477769	
 -2.462781	
 -2.452888	
 -2.453183	
 -2.443289	
 -2.443584	
 -2.443878	
 -2.439078	
 -2.429184	
 -2.419288	
 -2.399205	
 -2.399498	
 -2.384509	
 -2.425556	
 -2.446226	
 -2.482179	
 -2.477377	
 -2.447104	
 -2.432113	
 -2.417121	
 -2.442884	
 -2.453364	
 -2.423090	
 -2.413192	
 -2.423671	
 -2.413773	
 -2.408969	
 -2.404165	
 -2.424832	
 -2.420028	
 -2.450884	
 -2.466456	
 -2.471839	
 -2.482317	
 -2.487700	
 -2.457422	
 -2.427145	
 -2.427433	
 -2.397155	
 -2.387254	
 -2.372258	
 -2.367451	
 -2.393211	
 -2.393497	
 -2.419255	
 -2.439920	
 -2.414734	
 -2.409926	
 -2.425495	
 -2.435969	
 -2.431160	
 -2.426351	
 -2.441919	
 -2.457487	
 -2.437394	
 -2.427490	
 -2.392113	
 -2.372020	
 -2.377398	
 -2.418437	
 -2.418720	
 -2.424098	
 -2.398910	
 -2.414475	
 -2.430041	
 -2.430323	
 -2.445888	
 -2.466547	
 -2.477018	
 -2.462017	
 -2.457203	
 -2.426918	
 -2.406822	
 -2.422386	
 -2.427760	
 -2.433136	
 -2.469076	
 -2.423507	
 -2.398314	
 -2.368028	
 -2.347930	
 -2.399152	
 -2.429997	
 -2.440465	
 -2.445837	
 -2.486870	
 -2.502431	
 -2.487426	
 -2.446949	
 -2.416660	
 -2.401655	
 -2.391743	
 -2.392019	
 -2.387202	
 -2.407856	
 -2.433603	
 -2.454257	
 -2.469816	
 -2.480281	
 -2.490744	
 -2.506302	
 -2.506577	
 -2.471192	
 -2.456183	
 -2.436079	
 -2.400693	
 -2.395872	
 -2.406335	
 -2.421891	
 -2.442543	
 -2.417344	
 -2.417617	
 -2.397511	
 -2.423256	
 -2.418434	
 -2.449272	
 -2.459732	
 -2.449815	
 -2.470463	
 -2.475829	
 -2.476100	
 -2.455993	
 -2.430793	
 -2.425968	
 -2.400766	
 -2.401036	
 -2.426778	
 -2.416859	
 -2.412033	
 -2.412302	
 -2.453326	
 -2.484161	
 -2.479335	
 -2.489792	
 -2.469682	
 -2.464856	
 -2.465124	
 -2.470485	
 -2.475846	
 -2.455736	
 -2.461097	
 -2.420609	
 -2.420875	
 -2.426236	
 -2.441784	
 -2.457333	
 -2.467788	
 -2.488430	
 -2.442846	
 -2.432922	
 -2.463752	
 -2.484395	
 -2.464281	
 -2.495112	
 -2.500469	
 -2.490544	
 -2.450052	
 -2.409560	
 -2.414918	
 -2.399898	
 -2.389971	
 -2.410611	
 -2.405779	
 -2.421324	
 -2.441963	
 -2.447319	
 -2.452674	
 -2.468218	
 -2.488856	
 -2.514589	
 -2.514849	
 -2.484542	
 -2.433859	
 -2.413741	
 -2.398718	
 -2.404072	
 -2.434897	
 -2.486099	
 -2.476169	
 -2.481522	
 -2.491969	
 -2.492227	
 -2.497579	
 -2.472364	
 -2.447151	
 -2.462691	
 -2.508797	
 -2.473392	
 -2.432895	
 -2.412773	
 -2.428312	
 -2.448946	
 -2.423730	
 -2.434174	
 -2.408957	
 -2.409212	
 -2.399278	
 -2.419910	
 -2.435448	
 -2.440796	
 -2.430861	
 -2.431115	
 -2.461934	
 -2.477470	
 -2.457346	
 -2.477976	
 -2.488418	
 -2.473387	
 -2.437979	
 -2.407664	
 -2.382445	
 -2.413263	
 -2.418608	
 -2.423953	
 -2.454771	
 -2.465210	
 -2.506215	
 -2.567597	
 -2.583130	
 -2.522248	
 -2.497026	
 -2.487087	
 -2.472053	
 -2.436641	
 -2.436890	
 -2.432044	
 -2.422104	
 -2.427446	
 -2.432789	
 -2.427941	
 -2.458756	
 -2.479380	
 -2.469438	
 -2.459497	
 -2.480120	
 -2.516027	
 -2.541745	
 -2.567462	
 -2.511670	
 -2.471161	
 -2.451029	
 -2.420708	
 -2.426047	
 -2.426291	
 -2.411253	
 -2.416591	
 -2.437213	
 -2.462928	
 -2.447889	
 -2.437943	
 -2.463658	
 -2.484278	
 -2.494710	
 -2.510235	
 -2.535949	
 -2.531096	
 -2.490583	
 -2.485730	
 -2.460500	
 -2.450553	
 -2.440605	
 -2.456128	
 -2.435991	
 -2.466798	
 -2.482321	
 -2.492749	
 -2.518460	
 -2.488134	
 -2.483279	
 -2.483518	
 -2.483756	
 -2.473806	
 -2.458761	
 -2.458999	
 -2.479614	
 -2.484946	
 -2.490278	
 -2.475232	
 -2.465280	
 -2.460423	
 -2.486131	
 -2.516933	
 -2.512074	
 -2.517405	
 -2.578773	
 -2.599385	
 -2.569054	
 -2.548912	
 -2.544053	
 -2.488249	
 -2.473201	
 -2.468340	
 -2.458386	
 -2.443335	
 -2.443569	
 -2.443802	
 -2.510262	
 -2.535966	
 -2.556576	
 -2.577186	
 -2.592701	
 -2.608216	
 -2.618637	
 -2.623962	
 -2.639476	
 -2.609141	
 -2.563523	
 -2.512809	
 -2.457002	
 -2.487798	
 -2.493123	
 -2.493352	
 -2.493582	
 -2.524377	
 -2.565361	
 -2.580872	
 -2.570912	
 -2.535480	
 -2.515330	
 -2.520652	
 -2.541258	
 -2.531296	
 -2.500957	
 -2.516467	
 -2.511600	
 -2.501638	
 -2.496770	
 -2.481713	
 -2.471750	
 -2.471975	
 -2.512956	
 -2.528464	
 -2.508311	
 -2.513631	
 -2.549515	
 -2.559928	
 -2.514303	
 -2.483961	
 -2.453618	
 -2.423275	
 -2.433687	
 -2.418627	
 -2.403567	
 -2.383412	
 -2.373446	
 -2.343102	
 -2.353512	
 -2.394488	
 -2.420182	
 -2.435686	
 -2.446096	
 -2.420844	
 -2.421065	
 -2.411096	
 -2.416411	
 -2.416631	
 -2.437227	
 -2.411975	
 -2.376534	
 -2.392036	
 -2.382065	
 -2.423039	
 -2.413068	
 -2.443852	
 -2.464448	
 -2.479948	
 -2.505638	
 -2.500760	
 -2.480600	
 -2.465533	
 -2.460655	
 -2.486343	
 -2.481465	
 -2.522436	
 -2.507368	
 -2.477017	
 -2.436478	
 -2.406126	
 -2.380869	
 -2.360705	
 -2.401675	
 -2.412077	
 -2.442857	
 -2.483826	
 -2.509511	
 -2.525007	
 -2.509937	
 -2.535620	
 -2.510362	
 -2.469819	
 -2.454748	
 -2.444770	
 -2.470454	
 -2.485948	
 -2.501442	
 -2.491464	
 -2.476391	
 -2.507168	
 -2.517567	
 -2.517777	
 -2.523080	
 -2.477441	
 -2.503122	
 -2.477859	
 -2.523917	
 -2.529220	
 -2.524333	
 -2.509258	
 -2.458523	
 -2.479108	
 -2.438560	
 -2.448956	
 -2.479729	
 -2.520691	
 -2.541274	
 -2.531293	
 -2.526403	
 -2.521515	
 -2.562476	
 -2.542303	
 -2.511942	
 -2.517242	
 -2.466503	
 -2.461613	
 -2.461817	
 -2.472209	
 -2.462225	
 -2.426767	
 -2.416783	
 -2.406797	
 -2.406999	
 -2.407202	
 -2.432876	
 -2.489117	
 -2.514789	
 -2.550652	
 -2.550854	
 -2.571432	
 -2.607294	
 -2.622777	
 -2.658638	
 -2.709782	
 -2.766020	
 -2.832446	
 -2.863212	
 -2.878695	
 -2.945120	
 -3.031923	
 -3.108537	
 -3.210623	
 -3.282142	
 -3.368944	
 -3.471029	
 -3.557831	
 -3.644632	
 -3.655017	
 -3.583893	
 -3.507675	
 -3.451833	
 -3.416369	
 -3.380904	
 -3.355628	
 -3.345635	
 -3.294886	
 -3.203383	
 -3.066030	
 -2.938866	
 -2.786230	
 -2.608121	
 -2.475862	
 -2.333414	
 -2.185871	
 -1.997573	
 -1.819463	
 -1.620977	
 -1.422489	
 -1.269851	
 -1.127401	
 -1.081743	
 -1.071746	
 -1.153447	
 -1.240242	
 -1.352509	
 -1.474964	
 -1.592324	
 -1.724968	
 -1.801573	
 -1.893461	
 -1.959877	
 -2.056860	
 -2.097804	
 -2.154029	
 -2.205162	
 -2.241010	
 -2.276859	
 -2.297424	
 -2.358745	
 -2.425158	
 -2.455911	
 -2.471381	
 -2.486851	
 -2.502321	
 -2.507602	
 -2.523071	
 -2.528350	
 -2.497970	
 -2.477778	
 -2.477963	
 -2.483242	
 -2.452861	
 -2.463234	
 -2.478701	
 -2.483979	
 -2.494352	
 -2.509818	
 -2.555850	
 -2.566222	
 -2.571499	
 -2.586964	
 -2.612619	
 -2.556763	
 -2.562039	
 -2.531654	
 -2.542025	
 -2.496357	
 -2.455782	
 -2.445774	
 -2.456144	
 -2.476701	
 -2.492164	
 -2.553476	
 -2.614788	
 -2.609873	
 -2.610052	
 -2.579665	
 -2.569654	
 -2.549455	
 -2.539445	
 -2.539623	
 -2.534705	
 -2.550166	
 -2.550343	
 -2.560709	
 -2.565979	
 -2.555968	
 -2.556144	
 -2.556320	
 -2.571779	
 -2.592331	
 -2.607789	
 -2.592681	
 -2.567384	
 -2.608314	
 -2.659432	
 -2.629040	
 -2.593553	
 -2.578444	
 -2.542957	
 -2.543130	
 -2.538208	
 -2.533287	
 -2.569119	
 -2.569292	
 -2.594936	
 -2.615485	
 -2.595279	
 -2.595450	
 -2.605810	
 -2.621264	
 -2.611245	
 -2.591039	
 -2.575926	
 -2.540435	
 -2.530416	
 -2.520397	
 -2.535849	
 -2.581867	
 -2.576942	
 -2.551638	
 -2.551806	
 -2.577446	
 -2.587803	
 -2.603254	
 -2.608515	
 -2.629059	
 -2.613943	
 -2.603921	
 -2.639748	
 -2.650103	
 -2.578948	
 -2.563830	
 -2.558901	
 -2.564161	
 -2.569420	
 -2.554301	
 -2.528994	
 -2.534253	
 -2.549700	
 -2.539675	
 -2.565310	
 -2.585851	
 -2.616580	
 -2.632025	
 -2.616905	
 -2.632350	
 -2.612135	
 -2.576636	
 -2.576798	
 -2.587148	
 -2.612781	
 -2.592565	
 -2.577442	
 -2.577602	
 -2.572668	
 -2.583017	
 -2.562799	
 -2.568054	
 -2.573307	
 -2.614221	
 -2.629663	
 -2.645104	
 -2.609603	
 -2.569006	
 -2.569163	
 -2.554038	
 -2.523629	
 -2.528880	
 -2.534131	
 -2.539383	
 -2.565010	
 -2.595734	
 -2.611172	
 -2.565478	
 -2.570729	
 -2.591261	
 -2.601605	
 -2.622137	
 -2.642669	
 -2.627540	
 -2.592033	
 -2.571810	
 -2.571964	
 -2.582305	
 -2.592647	
 -2.602989	
 -2.592952	
 -2.603294	
 -2.634012	
 -2.629070	
 -2.649598	
 -2.665033	
 -2.665184	
 -2.655146	
 -2.634920	
 -2.614693	
 -2.594465	
 -2.579332	
 -2.630426	
 -2.625480	
 -2.600159	
 -2.539175	
 -2.518947	
 -2.534378	
 -2.554903	
 -2.590712	
 -2.601049	
 -2.641951	
 -2.631910	
 -2.652434	
 -2.652581	
 -2.662917	
 -2.642685	
 -2.596982	
 -2.576751	
 -2.571802	
 -2.597419	
 -2.628131	
 -2.602805	
 -2.592760	
 -2.587810	
 -2.623615	
 -2.633948	
 -2.664658	
 -2.674989	
 -2.664945	
 -2.659993	
 -2.655041	
 -2.655184	
 -2.645137	
 -2.640185	
 -2.640327	
 -2.614997	
 -2.604950	
 -2.625468	
 -2.610326	
 -2.646127	
 -2.666645	
 -2.707540	
 -2.722963	
 -2.697631	
 -2.667204	
 -2.667344	
 -2.667483	
 -2.677809	
 -2.672854	
 -2.632237	
 -2.596715	
 -2.607042	
 -2.642839	
 -2.678637	
 -2.638020	
 -2.622874	
 -2.643387	
 -2.643523	
 -2.633470	
 -2.613229	
 -2.633742	
 -2.659349	
 -2.695145	
 -2.700374	
 -2.700509	
 -2.670077	
 -2.614173	
 -2.593929	
 -2.594063	
 -2.589103	
 -2.579047	
 -2.548614	
 -2.543652	
 -2.548879	
 -2.564294	
 -2.574615	
 -2.574747	
 -2.554501	
 -2.575010	
 -2.570047	
 -2.565082	
 -2.544836	
 -2.555155	
 -2.545096	
 -2.555415	
 -2.530073	
 -2.530202	
 -2.555803	
 -2.555932	
 -2.545872	
 -2.540906	
 -2.541034	
 -2.561539	
 -2.571856	
 -2.582171	
 -2.551732	
 -2.531482	
 -2.511231	
 -2.531735	
 -2.511483	
 -2.501421	
 -2.481169	
 -2.466011	
 -2.461043	
 -2.410224	
 -2.440914	
 -2.446134	
 -2.405503	
 -2.410721	
 -2.446506	
 -2.461912	
 -2.472225	
 -2.467253	
 -2.477565	
 -2.442026	
 -2.401394	
 -2.370949	
 -2.376166	
 -2.381382	
 -2.381503	
 -2.361247	
 -2.346085	
 -2.330923	
 -2.320854	
 -2.341351	
 -2.366943	
 -2.402724	
 -2.443597	
 -2.479377	
 -2.464213	
 -2.387917	
 -2.357468	
 -2.327021	
 -2.322045	
 -2.311973	
 -2.312091	
 -2.337680	
 -2.322514	
 -2.286970	
 -2.307464	
 -2.348335	
 -2.343356	
 -2.363850	
 -2.404721	
 -2.409930	
 -2.410045	
 -2.410160	
 -2.389897	
 -2.415483	
 -2.390126	
 -2.395334	
 -2.400541	
 -2.395560	
 -2.385484	
 -2.344842	
 -2.370427	
 -2.401105	
 -2.426689	
 -2.462462	
 -2.477857	
 -2.488156	
 -2.508645	
 -2.518944	
 -2.498678	
 -2.483505	
 -2.453049	
 -2.437876	
 -2.417608	
 -2.433000	
 -2.473865	
 -2.494352	
 -2.489365	
 -2.484380	
 -2.443733	
 -2.464219	
 -2.515270	
 -2.530660	
 -2.540956	
 -2.551252	
 -2.536075	
 -2.525994	
 -2.551572	
 -2.551678	
 -2.516123	
 -2.521322	
 -2.541805	
 -2.541910	
 -2.536920	
 -2.537025	
 -2.537129	
 -2.567800	
 -2.598470	
 -2.613856	
 -2.624149	
 -2.634440	
 -2.614166	
 -2.629551	
 -2.650031	
 -2.634850	
 -2.578914	
 -2.573921	
 -2.548551	
 -2.518086	
 -2.543659	
 -2.538664	
 -2.503105	
 -2.523582	
 -2.589909	
 -2.615480	
 -2.600297	
 -2.600396	
 -2.615778	
 -2.605687	
 -2.595597	
 -2.580412	
 -2.575416	
 -2.560231	
 -2.575611	
 -2.555331	
 -2.545239	
 -2.575902	
 -2.586187	
 -2.596472	
 -2.591474	
 -2.622135	
 -2.622231	
 -2.622326	
 -2.627516	
 -2.632705	
 -2.617516	
 -2.637987	
 -2.694119	
 -2.658553	
 -2.622986	
 -2.602702	
 -2.602795	
 -2.597793	
 -2.602980	
 -2.587790	
 -2.567504	
 -2.562501	
 -2.608442	
 -2.639099	
 -2.634096	
 -2.649470	
 -2.675033	
 -2.670028	
 -2.659930	
 -2.644737	
 -2.624449	
 -2.599066	
 -2.588967	
 -2.589056	
 -2.604427	
 -2.589233	
 -2.574038	
 -2.553748	
 -2.579307	
 -2.599772	
 -2.594765	
 -2.635607	
 -2.666259	
 -2.691818	
 -2.702092	
 -2.686895	
 -2.697169	
 -2.666689	
 -2.636208	
 -2.631199	
 -2.590529	
 -2.560047	
 -2.544847	
 -2.565309	
 -2.575582	
 -2.596042	
 -2.621597	
 -2.621680	
 -2.637046	
 -2.647317	
 -2.662683	
 -2.657670	
 -2.637374	
 -2.632362	
 -2.612065	
 -2.607052	
 -2.586755	
 -2.581741	
 -2.607293	
 -2.643033	
 -2.668585	
 -2.648287	
 -2.607612	
 -2.628068	
 -2.612863	
 -2.618036	
 -2.623209	
 -2.638570	
 -2.638648	
 -2.618347	
 -2.608237	
 -2.593031	
 -2.582918	
 -2.577901	
 -2.572882	
 -2.567864	
 -2.562846	
 -2.583299	
 -2.608846	
 -2.614015	
 -2.629373	
 -2.629447	
 -2.634616	
 -2.644879	
 -2.629669	
 -2.639932	
 -2.634911	
 -2.629889	
 -2.609585	
 -2.604563	
 -2.568975	
 -2.594519	
 -2.589496	
 -2.574284	
 -2.579451	
 -2.584616	
 -2.589781	
 -2.605134	
 -2.630677	
 -2.625653	
 -2.610439	
 -2.646169	
 -2.636050	
 -2.636120	
 -2.590338	
 -2.595502	
 -2.565004	
 -2.519222	
 -2.504007	
 -2.509170	
 -2.499048	
 -2.509304	
 -2.560314	
 -2.580759	
 -2.616485	
 -2.636929	
 -2.672655	
 -2.662532	
 -2.657503	
 -2.627002	
 -2.632161	
 -2.596566	
 -2.576252	
 -2.535561	
 -2.535625	
 -2.520406	
 -2.535752	
 -2.546005	
 -2.566445	
 -2.576696	
 -2.597137	
 -2.627765	
 -2.643110	
 -2.638077	
 -2.668705	
 -2.638200	
 -2.633166	
 -2.617943	
 -2.628193	
 -2.633347	
 -2.577369	
 -2.572335	
 -2.552016	
 -2.552075	
 -2.541946	
 -2.582760	
 -2.633761	
 -2.649102	
 -2.654255	
 -2.664501	
 -2.649276	
 -2.613673	
 -2.603541	
 -2.603597	
 -2.573088	
 -2.552766	
 -2.552822	
 -2.552878	
 -2.552933	
 -2.563177	
 -2.573421	
 -2.593853	
 -2.614285	
 -2.609245	
 -2.634771	
 -2.629730	
 -2.619595	
 -2.634931	
 -2.624795	
 -2.655415	
 -2.629995	
 -2.584198	
 -2.584250	
 -2.584302	
 -2.574165	
 -2.584405	
 -2.569173	
 -2.533563	
 -2.528519	
 -2.564229	
 -2.589751	
 -2.610178	
 -2.625510	
 -2.630655	
 -2.645987	
 -2.676601	
 -2.671556	
 -2.635943	
 -2.595236	
 -2.549435	
 -2.513822	
 -2.529153	
 -2.549577	
 -2.590378	
 -2.610802	
 -2.610848	
 -2.595611	
 -2.636412	
 -2.682306	
 -2.672164	
 -2.631454	
 -2.626403	
 -2.590788	
 -2.555171	
 -2.545027	
 -2.539976	
 -2.550209	
 -2.550252	
 -2.560484	
 -2.535055	
 -2.535097	
 -2.555516	
 -2.575936	
 -2.616733	
 -2.596397	
 -2.611721	
 -2.586291	
 -2.611803	
 -2.627126	
 -2.622073	
 -2.611924	
 -2.617058	
 -2.612003	
 -2.586571	
 -2.581515	
 -2.576460	
 -2.601970	
 -2.642764	
 -2.627518	
 -2.617368	
 -2.617405	
 -2.607253	
 -2.617479	
 -2.602233	
 -2.612458	
 -2.612494	
 -2.617625	
 -2.592189	
 -2.566752	
 -2.546411	
 -2.536257	
 -2.546481	
 -2.551609	
 -2.561832	
 -2.556771	
 -2.587372	
 -2.592500	
 -2.602722	
 -2.592566	
 -2.602788	
 -2.623197	
 -2.623230	
 -2.648734	
 -2.618200	
 -2.613136	
 -2.608073	
 -2.567349	
 -2.552097	
 -2.567411	
 -2.577630	
 -2.598037	
 -2.577690	
 -2.587909	
 -2.613409	
 -2.633816	
 -2.674600	
 -2.674628	
 -2.654279	
 -2.644119	
 -2.628862	
 -2.603419	
 -2.588163	
 -2.598378	
 -2.603500	
 -2.588244	
 -2.557703	
 -2.557729	
 -2.567944	
 -2.603630	
 -2.654599	
 -2.669907	
 -2.654649	
 -2.629201	
 -2.644509	
 -2.634345	
 -2.649651	
 -2.634392	
 -2.639509	
 -2.644627	
 -2.614083	
 -2.578446	
 -2.588657	
 -2.588679	
 -2.624361	
 -2.609099	
 -2.609121	
 -2.604048	
 -2.634635	
 -2.634655	
 -2.629580	
 -2.634696	
 -2.609243	
 -2.624546	
 -2.644943	
 -2.639867	
 -2.665358	
 -2.650094	
 -2.629734	
 -2.619564	
 -2.609393	
 -2.594127	
 -2.599239	
 -2.609445	
 -2.624745	
 -2.589101	
 -2.589118	
 -2.599322	
 -2.624809	
 -2.619731	
 -2.640123	
 -2.629949	
 -2.599398	
 -2.604508	
 -2.589239	
 -2.584158	
 -2.558700	
 -2.553620	
 -2.568916	
 -2.574024	
 -2.594414	
 -2.589332	
 -2.599533	
 -2.594451	
 -2.635217	
 -2.655606	
 -2.675995	
 -2.696383	
 -2.681111	
 -2.630178	
 -2.604717	
 -2.604727	
 -2.604737	
 -2.599652	
 -2.620039	
 -2.630236	
 -2.676095	
 -2.691386	
 -2.706678	
 -2.721969	
 -2.691411	
 -2.686323	
 -2.676142	
 -2.640489	
 -2.671061	
 -2.660880	
 -2.635414	
 -2.620137	
 -2.620143	
 -2.604866	
 -2.625248	
 -2.640536	
 -2.655824	
 -2.671111	
 -2.676211	
 -2.716969	
 -2.716973	
 -2.691505	
 -2.671131	
 -2.686417	
 -2.701702	
 -2.671139	
 -2.676236	
 -2.676238	
 -2.671145	
 -2.681336	
 -2.686431	
 -2.666055	
 -2.640584	
 -2.635491	
 -2.645680	
 -2.635491	
 -2.640585	
 -2.666056	
 -2.660962	
 -2.650772	
 -2.666054	
 -2.671146	
 -2.645673	
 -2.630388	
 -2.615102	
 -2.589629	
 -2.594720	
 -2.564151	
 -2.584525	
 -2.604900	
 -2.666028	
 -2.671118	
 -2.666020	
 -2.671109	
 -2.645634	
 -2.671100	
 -2.645624	
 -2.635429	
 -2.630329	
 -2.609946	
 -2.599750	
 -2.569178	
 -2.553888	
 -2.508032	
 -2.482553	
 -2.467263	
 -2.482538	
 -2.502908	
 -2.513088	
 -2.523269	
 -2.523260	
 -2.523251	
 -2.543619	
 -2.553798	
 -2.569072	
 -2.538496	
 -2.482448	
 -2.487532	
 -2.497709	
 -2.507888	
 -2.553725	
 -2.579186	
 -2.563891	
 -2.548596	
 -2.548584	
 -2.574044	
 -2.579125	
 -2.563829	
 -2.604571	
 -2.630029	
 -2.630015	
 -2.619813	
 -2.599421	
 -2.584123	
 -2.548449	
 -2.512773	
 -2.528041	
 -2.507648	
 -2.517821	
 -2.517805	
 -2.563638	
 -2.599282	
 -2.609454	
 -2.594154	
 -2.578854	
 -2.573743	
 -2.583913	
 -2.553329	
 -2.558405	
 -2.558386	
 -2.583840	
 -2.548161	
 -2.553236	
 -2.543027	
 -2.553197	
 -2.599026	
 -2.619383	
 -2.598985	
 -2.593870	
 -2.614226	
 -2.593828	
 -2.568335	
 -2.588691	
 -2.598857	
 -2.593741	
 -2.603908	
 -2.593696	
 -2.598767	
 -2.578367	
 -2.557965	
 -2.563037	
 -2.578296	
 -2.583366	
 -2.568058	
 -2.583317	
 -2.603670	
 -2.624022	
 -2.598524	
 -2.598498	
 -2.598473	
 -2.608635	
 -2.598420	
 -2.572922	
 -2.577989	
 -2.588151	
 -2.603407	
 -2.577907	
 -2.552407	
 -2.567662	
 -2.562540	
 -2.582888	
 -2.598142	
 -2.598113	
 -2.603178	
 -2.572583	
 -2.587836	
 -2.587806	
 -2.628529	
 -2.664160	
 -2.659035	
 -2.648815	
 -2.653877	
 -2.674224	
 -2.709852	
 -2.714913	
 -2.714881	
 -2.786169	
 -2.847269	
 -2.898179	
 -2.918524	
 -2.959245	
 -3.071286	
 -3.173139	
 -3.264804	
 -3.310618	
 -3.336055	
 -3.407341	
 -3.499004	
 -3.570289	
 -3.621197	
 -3.616066	
 -3.565087	
 -3.524295	
 -3.514069	
 -3.514032	
 -3.524183	
 -3.529240	
 -3.493542	
 -3.432371	
 -3.376295	
 -3.274369	
 -3.146972	
 -2.948253	
 -2.713872	
 -2.571192	
 -2.464170	
 -2.341866	
 -2.158428	
 -1.964802	
 -1.699855	
 -1.516417	
 -1.389016	
 -1.271805	
 -1.271763	
 -1.266627	
 -1.241112	
 -1.337863	
 -1.429518	
 -1.480419	
 -1.531318	
 -1.622974	
 -1.719722	
 -1.780811	
 -1.882653	
 -1.979401	
 -2.055772	
 -2.127048	
 -2.244172	
 -2.356203	
 -2.412195	
 -2.473281	
 -2.488517	
 -2.468093	
 -2.468046	
 -2.503660	
 -2.539272	
 -2.554508	
 -2.559555	
 -2.534035	
 -2.518703	
 -2.523749	
 -2.544078	
 -2.528746	
 -2.538885	
 -2.564307	
 -2.559163	
 -2.594773	
 -2.625289	
 -2.599767	
 -2.594621	
 -2.609853	
 -2.599614	
 -2.568996	
 -2.553660	
 -2.538325	
 -2.548462	
 -2.563692	
 -2.563640	
 -2.594152	
 -2.599194	
 -2.624612	
 -2.639842	
 -2.609221	
 -2.598978	
 -2.624395	
 -2.619246	
 -2.649757	
 -2.670080	
 -2.654741	
 -2.634307	
 -2.634251	
 -2.639290	
 -2.629044	
 -2.634081	
 -2.613647	
 -2.593212	
 -2.567683	
 -2.582909	
 -2.608322	
 -2.613358	
 -2.648960	
 -2.638713	
 -2.638654	
 -2.633500	
 -2.628346	
 -2.628286	
 -2.612943	
 -2.587411	
 -2.566973	
 -2.572007	
 -2.587229	
 -2.607544	
 -2.582012	
 -2.581950	
 -2.581888	
 -2.586920	
 -2.602140	
 -2.632644	
 -2.627487	
 -2.622328	
 -2.612077	
 -2.622201	
 -2.637421	
 -2.652640	
 -2.703518	
 -2.728925	
 -2.713577	
 -2.662568	
 -2.621748	
 -2.591116	
 -2.601239	
 -2.621550	
 -2.621483	
 -2.636701	
 -2.616256	
 -2.611094	
 -2.590649	
 -2.605864	
 -2.610891	
 -2.605728	
 -2.610755	
 -2.600497	
 -2.605522	
 -2.605453	
 -2.600289	
 -2.620596	
 -2.645999	
 -2.656117	
 -2.635670	
 -2.671259	
 -2.666094	
 -2.645645	
 -2.609914	
 -2.614936	
 -2.625053	
 -2.609698	
 -2.594342	
 -2.594270	
 -2.584008	
 -2.599218	
 -2.588955	
 -2.593977	
 -2.604091	
 -2.619300	
 -2.670169	
 -2.705754	
 -2.690397	
 -2.659755	
 -2.624020	
 -2.629038	
 -2.628963	
 -2.623792	
 -2.608433	
 -2.587978	
 -2.557336	
 -2.557258	
 -2.577559	
 -2.577481	
 -2.602875	
 -2.628268	
 -2.648568	
 -2.663772	
 -2.648411	
 -2.668709	
 -2.699195	
 -2.704210	
 -2.688847	
 -2.704050	
 -2.709064	
 -2.683512	
 -2.627393	
 -2.586557	
 -2.581382	
 -2.586394	
 -2.586312	
 -2.596419	
 -2.616714	
 -2.677764	
 -2.687869	
 -2.672503	
 -2.657137	
 -2.662149	
 -2.697725	
 -2.712924	
 -2.707746	
 -2.672000	
 -2.687198	
 -2.697302	
 -2.641179	
 -2.625810	
 -2.605348	
 -2.579790	
 -2.569514	
 -2.574523	
 -2.615190	
 -2.650764	
 -2.676149	
 -2.681155	
 -2.655596	
 -2.660603	
 -2.660515	
 -2.675709	
 -2.655242	
 -2.644965	
 -2.629593	
 -2.593843	
 -2.588659	
 -2.578380	
 -2.583384	
 -2.598577	
 -2.618864	
 -2.654433	
 -2.649248	
 -2.664439	
 -2.664348	
 -2.674445	
 -2.694730	
 -2.684448	
 -2.658885	
 -2.638414	
 -2.628133	
 -2.607661	
 -2.612662	
 -2.612568	
 -2.617569	
 -2.607285	
 -2.591908	
 -2.612190	
 -2.632473	
 -2.642566	
 -2.652659	
 -2.693318	
 -2.703411	
 -2.698220	
 -2.703218	
 -2.698026	
 -2.646986	
 -2.672361	
 -2.656980	
 -2.626316	
 -2.641501	
 -2.631214	
 -2.656588	
 -2.656489	
 -2.641107	
 -2.656291	
 -2.681662	
 -2.671374	
 -2.676368	
 -2.676268	
 -2.665979	
 -2.655690	
 -2.650494	
 -2.635110	
 -2.614631	
 -2.599246	
 -2.609332	
 -2.599042	
 -2.609128	
 -2.629403	
 -2.644583	
 -2.639386	
 -2.649471	
 -2.654462	
 -2.639075	
 -2.618593	
 -2.608299	
 -2.618384	
 -2.618279	
 -2.582514	
 -2.556936	
 -2.556831	
 -2.561819	
 -2.587185	
 -2.576889	
 -2.586972	
 -2.541016	
 -2.535814	
 -2.545895	
 -2.535599	
 -2.576246	
 -2.591421	
 -2.555653	
 -2.530072	
 -2.545246	
 -2.534948	
 -2.478802	
 -2.448125	
 -2.427639	
 -2.447906	
 -2.437607	
 -2.406931	
 -2.396631	
 -2.437275	
 -2.447352	
 -2.487995	
 -2.452224	
 -2.447017	
 -2.472376	
 -2.502830	
 -2.467057	
 -2.426189	
 -2.375132	
 -2.385208	
 -2.349434	
 -2.354414	
 -2.354300	
 -2.313431	
 -2.303128	
 -2.308107	
 -2.338558	
 -2.389386	
 -2.394365	
 -2.419721	
 -2.445076	
 -2.429676	
 -2.368428	
 -2.353028	
 -2.368194	
 -2.362983	
 -2.332299	
 -2.301615	
 -2.281119	
 -2.306473	
 -2.301260	
 -2.321519	
 -2.336683	
 -2.367129	
 -2.382293	
 -2.387268	
 -2.382053	
 -2.371744	
 -2.397095	
 -2.407164	
 -2.412137	
 -2.406921	
 -2.366045	
 -2.371017	
 -2.381084	
 -2.360585	
 -2.350274	
 -2.345057	
 -2.334745	
 -2.370282	
 -2.395631	
 -2.420979	
 -2.431044	
 -2.451297	
 -2.446079	
 -2.451048	
 -2.471301	
 -2.491553	
 -2.460862	
 -2.430170	
 -2.430044	
 -2.460484	
 -2.455264	
 -2.424570	
 -2.414256	
 -2.403940	
 -2.403812	
 -2.393496	
 -2.378085	
 -2.408523	
 -2.464433	
 -2.525436	
 -2.535497	
 -2.525179	
 -2.530145	
 -2.514732	
 -2.519696	
 -2.529756	
 -2.524530	
 -2.529495	
 -2.529364	
 -2.534327	
 -2.529102	
 -2.544254	
 -2.569594	
 -2.574556	
 -2.564235	
 -2.564103	
 -2.553782	
 -2.523083	
 -2.528045	
 -2.558477	
 -2.537967	
 -2.522549	
 -2.537699	
 -2.532470	
 -2.506863	
 -2.486351	
 -2.516782	
 -2.521741	
 -2.547078	
 -2.567320	
 -2.592655	
 -2.633274	
 -2.633137	
 -2.648284	
 -2.622676	
 -2.622539	
 -2.617306	
 -2.576414	
 -2.566088	
 -2.530289	
 -2.514867	
 -2.514729	
 -2.540062	
 -2.570489	
 -2.595822	
 -2.590587	
 -2.585353	
 -2.600496	
 -2.620734	
 -2.630781	
 -2.635736	
 -2.630500	
 -2.630358	
 -2.609840	
 -2.584226	
 -2.558612	
 -2.553376	
 -2.558328	
 -2.563280	
